"Density","Mach","Pressure","Temperature","vtkValidPointMask","arc_length","Points:0","Points:1","Points:2"
2.9233,0.26099,4.86,1.6648,1,0,-8.1,0,0
2.9223,0.26188,4.8586,1.6648,1,0.0731,-8.0269,0,0
2.9213,0.26276,4.8572,1.6648,1,0.1462,-7.9538,0,0
2.9203,0.26365,4.8558,1.6648,1,0.2193,-7.8807,0,0
2.9193,0.26453,4.8544,1.6648,1,0.2924,-7.8076,0,0
2.9183,0.26541,4.853,1.6647,1,0.3655,-7.7345,0,0
2.9173,0.2663,4.8516,1.6647,1,0.4386,-7.6614,0,0
2.9161,0.26736,4.85,1.6647,1,0.5117,-7.5883,0,0
2.9142,0.26926,4.8474,1.6647,1,0.5848,-7.5152,0,0
2.9123,0.27117,4.8447,1.6646,1,0.6579,-7.4421,0,0
2.9105,0.27307,4.8421,1.6646,1,0.731,-7.369,0,0
2.9086,0.27498,4.8395,1.6646,1,0.8041,-7.2959,0,0
2.9067,0.27688,4.8369,1.6645,1,0.8772,-7.2228,0,0
2.9048,0.27879,4.8343,1.6645,1,0.9503,-7.1497,0,0
2.9025,0.28108,4.8312,1.6645,1,1.0234,-7.0766,0,0
2.8994,0.28423,4.8267,1.6644,1,1.0965,-7.0035,0,0
2.8962,0.28739,4.8223,1.6643,1,1.1696,-6.9304,0,0
2.893,0.29055,4.8179,1.6643,1,1.2427,-6.8573,0,0
2.8898,0.2937,4.8135,1.6642,1,1.3158,-6.7842,0,0
2.8866,0.29686,4.8091,1.6642,1,1.3889,-6.7111,0,0
2.8834,0.30002,4.8047,1.6641,1,1.462,-6.638,0,0
2.8796,0.30373,4.7994,1.664,1,1.5351,-6.5649,0,0
2.8749,0.30828,4.7928,1.664,1,1.6082,-6.4918,0,0
2.8702,0.31283,4.7863,1.6639,1,1.6813,-6.4187,0,0
2.8655,0.31738,4.7797,1.6638,1,1.7544,-6.3456,0,0
2.8608,0.32192,4.7732,1.6637,1,1.8275,-6.2725,0,0
2.8561,0.32647,4.7666,1.6636,1,1.9006,-6.1994,0,0
2.8514,0.33102,4.7601,1.6635,1,1.9737,-6.1263,0,0
2.8459,0.33621,4.7523,1.6634,1,2.0468,-6.0532,0,0
2.8392,0.34224,4.7429,1.6633,1,2.1199,-5.9801,0,0
2.8325,0.34827,4.7336,1.6632,1,2.193,-5.907,0,0
2.8258,0.35431,4.7242,1.6631,1,2.2661,-5.8339,0,0
2.8191,0.36034,4.7148,1.6629,1,2.3392,-5.7608,0,0
2.8124,0.36637,4.7055,1.6628,1,2.4123,-5.6877,0,0
2.8057,0.3724,4.6961,1.6627,1,2.4854,-5.6146,0,0
2.798,0.37911,4.6852,1.6626,1,2.5585,-5.5415,0,0
2.7887,0.38672,4.6722,1.6624,1,2.6316,-5.4684,0,0
2.7795,0.39434,4.6591,1.6622,1,2.7047,-5.3953,0,0
2.7703,0.40195,4.6461,1.662,1,2.7778,-5.3222,0,0
2.761,0.40956,4.6331,1.6619,1,2.8509,-5.2491,0,0
2.7518,0.41718,4.6201,1.6617,1,2.924,-5.176,0,0
2.7425,0.42479,4.6071,1.6615,1,2.9971,-5.1029,0,0
2.7321,0.43304,4.5923,1.6613,1,3.0702,-5.0298,0,0
2.7197,0.44234,4.5746,1.6611,1,3.1433,-4.9567,0,0
2.7073,0.45163,4.557,1.6609,1,3.2164,-4.8836,0,0
2.6949,0.46092,4.5393,1.6606,1,3.2895,-4.8105,0,0
2.6825,0.47022,4.5217,1.6604,1,3.3626,-4.7374,0,0
2.6701,0.47951,4.504,1.6601,1,3.4357,-4.6643,0,0
2.6577,0.4888,4.4864,1.6599,1,3.5088,-4.5912,0,0
2.6443,0.49855,4.4671,1.6596,1,3.5819,-4.5181,0,0
2.628,0.5095,4.4436,1.6593,1,3.655,-4.445,0,0
2.6117,0.52044,4.4201,1.659,1,3.7281,-4.3719,0,0
2.5955,0.53138,4.3966,1.6587,1,3.8012,-4.2988,0,0
2.5792,0.54233,4.3731,1.6584,1,3.8743,-4.2257,0,0
2.5629,0.55327,4.3496,1.658,1,3.9474,-4.1526,0,0
2.5466,0.56422,4.3261,1.6577,1,4.0205,-4.0795,0,0
2.5299,0.57533,4.3019,1.6574,1,4.0936,-4.0064,0,0
2.5094,0.58767,4.2719,1.657,1,4.1667,-3.9333,0,0
2.489,0.60001,4.2419,1.6565,1,4.2398,-3.8602,0,0
2.4686,0.61236,4.2119,1.6561,1,4.3129,-3.7871,0,0
2.4482,0.6247,4.1819,1.6557,1,4.386,-3.714,0,0
2.4278,0.63705,4.1519,1.6553,1,4.4591,-3.6409,0,0
2.4073,0.64939,4.1219,1.6548,1,4.5322,-3.5678,0,0
2.3869,0.66174,4.092,1.6544,1,4.6053,-3.4947,0,0
2.3632,0.67504,4.0564,1.6539,1,4.6784,-3.4216,0,0
2.3392,0.68841,4.0205,1.6534,1,4.7515,-3.3485,0,0
2.3152,0.70179,3.9845,1.6528,1,4.8246,-3.2754,0,0
2.2912,0.71517,3.9485,1.6523,1,4.8977,-3.2023,0,0
2.2672,0.72855,3.9125,1.6518,1,4.9708,-3.1292,0,0
2.2432,0.74193,3.8765,1.6512,1,5.0439,-3.0561,0,0
2.2192,0.75531,3.8405,1.6507,1,5.117,-2.983,0,0
2.1933,0.7692,3.8011,1.6501,1,5.1901,-2.9099,0,0
2.1666,0.78332,3.76,1.6495,1,5.2632,-2.8368,0,0
2.1399,0.79745,3.719,1.6488,1,5.3363,-2.7637,0,0
2.1131,0.81158,3.6779,1.6482,1,5.4094,-2.6906,0,0
2.0864,0.8257,3.6368,1.6476,1,5.4825,-2.6175,0,0
2.0596,0.83983,3.5958,1.6469,1,5.5556,-2.5444,0,0
2.0329,0.85396,3.5547,1.6463,1,5.6287,-2.4713,0,0
2.0054,0.8683,3.5121,1.6456,1,5.7018,-2.3982,0,0
1.9767,0.883,3.467,1.6449,1,5.7749,-2.3251,0,0
1.948,0.8977,3.4219,1.6442,1,5.848,-2.252,0,0
1.9193,0.9124,3.3767,1.6435,1,5.9211,-2.1789,0,0
1.8906,0.9271,3.3316,1.6427,1,5.9942,-2.1058,0,0
1.8619,0.9418,3.2864,1.642,1,6.0673,-2.0327,0,0
1.8332,0.9565,3.2413,1.6413,1,6.1404,-1.9596,0,0
1.8045,0.97121,3.1961,1.6406,1,6.2135,-1.8865,0,0
1.775,0.98626,3.1486,1.6398,1,6.2866,-1.8134,0,0
1.7455,1.0013,3.1011,1.6391,1,6.3597,-1.7403,0,0
1.716,1.0164,3.0536,1.6383,1,6.4328,-1.6672,0,0
1.6866,1.0314,3.0061,1.6376,1,6.5059,-1.5941,0,0
1.6571,1.0465,2.9586,1.6368,1,6.579,-1.521,0,0
1.6276,1.0615,2.9111,1.6361,1,6.6521,-1.4479,0,0
1.5981,1.0766,2.8636,1.6353,1,6.7252,-1.3748,0,0
1.5694,1.0916,2.8165,1.6345,1,6.7983,-1.3017,0,0
1.5412,1.1066,2.7697,1.6336,1,6.8714,-1.2286,0,0
1.513,1.1216,2.7228,1.6328,1,6.9445,-1.1555,0,0
1.4847,1.1366,2.6759,1.6319,1,7.0176,-1.0824,0,0
1.4565,1.1516,2.629,1.631,1,7.0907,-1.0093,0,0
1.4282,1.1666,2.5822,1.6302,1,7.1638,-0.9362,0,0
1.4,1.1816,2.5353,1.6293,1,7.2369,-0.8631,0,0
1.3723,1.1964,2.4891,1.6284,1,7.31,-0.79,0,0
1.3471,1.2108,2.4462,1.6275,1,7.3831,-0.7169,0,0
1.3219,1.2251,2.4033,1.6266,1,7.4562,-0.6438,0,0
1.2967,1.2394,2.3604,1.6257,1,7.5293,-0.5707,0,0
1.2715,1.2538,2.3174,1.6248,1,7.6024,-0.4976,0,0
1.2463,1.2681,2.2745,1.6239,1,7.6755,-0.4245,0,0
1.2211,1.2824,2.2316,1.623,1,7.7486,-0.3514,0,0
1.1959,1.2968,2.1887,1.6221,1,7.8217,-0.2783,0,0
1.1736,1.31,2.1502,1.6212,1,7.8948,-0.2052,0,0
1.1527,1.3227,2.1138,1.6204,1,7.9679,-0.1321,0,0
1.1318,1.3355,2.0774,1.6195,1,8.041,-0.059,0,0
1.1108,1.3482,2.041,1.6186,1,8.1141,0.0141,0,0
1.0899,1.3609,2.0046,1.6178,1,8.1872,0.0872,0,0
1.069,1.3737,1.9682,1.6169,1,8.2603,0.1603,0,0
1.048,1.3864,1.9318,1.616,1,8.3334,0.2334,0,0
1.0278,1.3988,1.8965,1.6152,1,8.4065,0.3065,0,0
1.0124,1.4089,1.8692,1.6145,1,8.4796,0.3796,0,0
0.99694,1.4191,1.8419,1.6138,1,8.5527,0.4527,0,0
0.98151,1.4293,1.8147,1.6131,1,8.6258,0.5258,0,0
0.96607,1.4394,1.7874,1.6123,1,8.6989,0.5989,0,0
0.95063,1.4496,1.7601,1.6116,1,8.772,0.672,0,0
0.93519,1.4597,1.7328,1.6109,1,8.8451,0.7451,0,0
0.91976,1.4699,1.7055,1.6102,1,8.9182,0.8182,0,0
0.90649,1.4784,1.6819,1.6096,1,8.9913,0.8913,0,0
0.89513,1.4856,1.6616,1.609,1,9.0644,0.9644,0,0
0.88377,1.4928,1.6413,1.6084,1,9.1375,1.0375,0,0
0.8724,1.5,1.621,1.6078,1,9.2106,1.1106,0,0
0.86104,1.5072,1.6006,1.6073,1,9.2837,1.1837,0,0
0.84968,1.5144,1.5803,1.6067,1,9.3568,1.2568,0,0
0.83831,1.5216,1.56,1.6061,1,9.4299,1.3299,0,0
0.82695,1.5287,1.5397,1.6055,1,9.503,1.403,0,0
0.81863,1.5343,1.5247,1.6051,1,9.5761,1.4761,0,0
0.81071,1.5397,1.5104,1.6046,1,9.6492,1.5492,0,0
0.8028,1.5451,1.4961,1.6042,1,9.7223,1.6223,0,0
0.79489,1.5504,1.4819,1.6038,1,9.7954,1.6954,0,0
0.78698,1.5558,1.4676,1.6033,1,9.8685,1.7685,0,0
0.77907,1.5612,1.4533,1.6029,1,9.9416,1.8416,0,0
0.77115,1.5665,1.4391,1.6025,1,10.015,1.9147,0,0
0.76343,1.5719,1.4251,1.602,1,10.088,1.9878,0,0
0.75665,1.5771,1.4128,1.6016,1,10.161,2.0609,0,0
0.74987,1.5823,1.4005,1.6012,1,10.234,2.134,0,0
0.74309,1.5875,1.3882,1.6008,1,10.307,2.2071,0,0
0.73631,1.5928,1.3759,1.6004,1,10.38,2.2802,0,0
0.72953,1.598,1.3636,1.6,1,10.453,2.3533,0,0
0.72275,1.6032,1.3512,1.5996,1,10.526,2.4264,0,0
0.71597,1.6084,1.3389,1.5992,1,10.599,2.4995,0,0
0.70876,1.614,1.3258,1.5987,1,10.673,2.5726,0,0
0.70094,1.6201,1.3115,1.5982,1,10.746,2.6457,0,0
0.69312,1.6262,1.2972,1.5977,1,10.819,2.7188,0,0
0.6853,1.6324,1.2829,1.5972,1,10.892,2.7919,0,0
0.67747,1.6385,1.2687,1.5967,1,10.965,2.865,0,0
0.66965,1.6446,1.2544,1.5962,1,11.038,2.9381,0,0
0.66183,1.6507,1.2401,1.5957,1,11.111,3.0112,0,0
0.65401,1.6568,1.2258,1.5952,1,11.184,3.0843,0,0
0.64553,1.6639,1.2102,1.5946,1,11.257,3.1574,0,0
0.63661,1.6717,1.1938,1.594,1,11.33,3.2305,0,0
0.62769,1.6795,1.1774,1.5934,1,11.404,3.3036,0,0
0.61877,1.6873,1.161,1.5927,1,11.477,3.3767,0,0
0.60986,1.6951,1.1446,1.5921,1,11.55,3.4498,0,0
0.60094,1.7029,1.1282,1.5915,1,11.623,3.5229,0,0
0.59202,1.7107,1.1118,1.5908,1,11.696,3.596,0,0
0.5831,1.7184,1.0954,1.5902,1,11.769,3.6691,0,0
0.57345,1.7276,1.0776,1.5895,1,11.842,3.7422,0,0
0.56354,1.7373,1.0592,1.5887,1,11.915,3.8153,0,0
0.55363,1.7469,1.0409,1.5879,1,11.988,3.8884,0,0
0.54372,1.7565,1.0225,1.5872,1,12.062,3.9615,0,0
0.53381,1.7662,1.0041,1.5864,1,12.135,4.0346,0,0
0.52391,1.7758,0.9858,1.5856,1,12.208,4.1077,0,0
0.514,1.7855,0.96745,1.5848,1,12.281,4.1808,0,0
0.50409,1.7951,0.94909,1.5841,1,12.354,4.2539,0,0
0.49402,1.8059,0.93034,1.5832,1,12.427,4.327,0,0
0.48391,1.8169,0.91149,1.5823,1,12.5,4.4001,0,0
0.4738,1.828,0.89265,1.5815,1,12.573,4.4732,0,0
0.46369,1.839,0.8738,1.5806,1,12.646,4.5463,0,0
0.45358,1.8501,0.85496,1.5797,1,12.719,4.6194,0,0
0.44347,1.8611,0.83612,1.5789,1,12.792,4.6925,0,0
0.43336,1.8721,0.81727,1.578,1,12.866,4.7656,0,0
0.42325,1.8832,0.79843,1.5771,1,12.939,4.8387,0,0
0.41372,1.8951,0.78055,1.5761,1,13.012,4.9118,0,0
0.4043,1.9071,0.76285,1.5751,1,13.085,4.9849,0,0
0.39488,1.9191,0.74515,1.5741,1,13.158,5.058,0,0
0.38546,1.9312,0.72746,1.5732,1,13.231,5.1311,0,0
0.37604,1.9432,0.70976,1.5722,1,13.304,5.2042,0,0
0.36662,1.9552,0.69206,1.5712,1,13.377,5.2773,0,0
0.3572,1.9672,0.67436,1.5702,1,13.45,5.3504,0,0
0.34778,1.9793,0.65666,1.5692,1,13.524,5.4235,0,0
0.33929,1.9919,0.64063,1.5681,1,13.597,5.4966,0,0
0.33099,2.0046,0.62496,1.5671,1,13.67,5.5697,0,0
0.3227,2.0174,0.60929,1.566,1,13.743,5.6428,0,0
0.31441,2.0301,0.59362,1.5649,1,13.816,5.7159,0,0
0.30611,2.0429,0.57795,1.5639,1,13.889,5.789,0,0
0.29782,2.0556,0.56228,1.5628,1,13.962,5.8621,0,0
0.28953,2.0684,0.54661,1.5617,1,14.035,5.9352,0,0
0.28124,2.0811,0.53095,1.5607,1,14.108,6.0083,0,0
0.27396,2.0936,0.51717,1.5596,1,14.181,6.0814,0,0
0.26705,2.1061,0.50405,1.5585,1,14.254,6.1545,0,0
0.26013,2.1185,0.49093,1.5574,1,14.328,6.2276,0,0
0.25322,2.131,0.47781,1.5563,1,14.401,6.3007,0,0
0.2463,2.1434,0.4647,1.5552,1,14.474,6.3738,0,0
0.23938,2.1558,0.45158,1.5541,1,14.547,6.4469,0,0
0.23247,2.1683,0.43846,1.553,1,14.62,6.52,0,0
0.22555,2.1807,0.42534,1.5519,1,14.693,6.5931,0,0
0.21955,2.1933,0.41394,1.5508,1,14.766,6.6662,0,0
0.21414,2.2059,0.40366,1.5498,1,14.839,6.7393,0,0
0.20872,2.2186,0.39337,1.5487,1,14.912,6.8124,0,0
0.20331,2.2312,0.38309,1.5477,1,14.986,6.8855,0,0
0.19789,2.2439,0.3728,1.5467,1,15.059,6.9586,0,0
0.19248,2.2565,0.36252,1.5456,1,15.132,7.0317,0,0
0.18707,2.2691,0.35223,1.5446,1,15.205,7.1048,0,0
0.18165,2.2818,0.34195,1.5435,1,15.278,7.1779,0,0
0.17637,2.2946,0.3319,1.5425,1,15.351,7.251,0,0
0.17126,2.3078,0.3222,1.5413,1,15.424,7.3241,0,0
0.16616,2.3209,0.31249,1.5401,1,15.497,7.3972,0,0
0.16106,2.334,0.30279,1.539,1,15.57,7.4703,0,0
0.1561,2.3473,0.29337,1.5378,1,15.643,7.5434,0,0
0.15152,2.3609,0.28466,1.5366,1,15.717,7.6165,0,0
0.14694,2.3744,0.27595,1.5354,1,15.79,7.6896,0,0
0.14236,2.388,0.26724,1.5342,1,15.863,7.7627,0,0
0.13777,2.4018,0.25851,1.533,1,15.936,7.8358,0,0
0.13311,2.4166,0.24964,1.5317,1,16.009,7.9089,0,0
0.12841,2.4317,0.2407,1.5303,1,16.082,7.982,0,0
0.12331,2.4488,0.23101,1.5288,1,16.155,8.0551,0,0
0.11798,2.4671,0.22088,1.527,1,16.228,8.1282,0,0
0.11211,2.4878,0.20972,1.5251,1,16.301,8.2013,0,0
0.10704,2.5046,0.20008,1.5232,1,16.374,8.2744,0,0
0.10394,2.5115,0.19418,1.5221,1,16.448,8.3475,0,0
0.10284,2.5106,0.19209,1.5216,1,16.521,8.4206,0,0
0.10336,2.503,0.19308,1.5218,1,16.594,8.4937,0,0
0.10473,2.4948,0.19568,1.5223,1,16.667,8.5668,0,0
0.10597,2.4871,0.19803,1.5228,1,16.74,8.6399,0,0
0.10662,2.4836,0.19926,1.523,1,16.813,8.713,0,0
0.10728,2.4802,0.20053,1.5233,1,16.886,8.7861,0,0
0.108,2.4769,0.20189,1.5235,1,16.959,8.8592,0,0
0.10899,2.4726,0.20377,1.5239,1,17.032,8.9323,0,0
0.11054,2.4657,0.20671,1.5244,1,17.105,9.0054,0,0
0.11301,2.4558,0.21141,1.5253,1,17.179,9.0785,0,0
0.11625,2.4444,0.21756,1.5264,1,17.252,9.1516,0,0
0.11966,2.4338,0.22406,1.5275,1,17.325,9.2247,0,0
0.12257,2.4258,0.22959,1.5284,1,17.398,9.2978,0,0
0.12547,2.4172,0.2351,1.5294,1,17.471,9.3709,0,0
0.12956,2.4051,0.24288,1.5306,1,17.544,9.444,0,0
0.13805,2.3641,0.25913,1.5335,1,17.617,9.5171,0,0
0.1578,2.2553,0.29709,1.5401,1,17.69,9.5902,0,0
0.17946,2.1493,0.33859,1.5467,1,17.763,9.6633,0,0
0.22123,2.0732,0.41773,1.5523,1,17.836,9.7364,0,0
0.263,1.997,0.49687,1.558,1,17.91,9.8095,0,0
0.30478,1.9208,0.57601,1.5636,1,17.983,9.8826,0,0
0.34655,1.8446,0.65516,1.5693,1,18.056,9.9557,0,0
0.38832,1.7685,0.7343,1.5749,1,18.129,10.029,0,0
0.4301,1.6923,0.81344,1.5806,1,18.202,10.102,0,0
0.47187,1.6161,0.89258,1.5863,1,18.275,10.175,0,0
0.51365,1.5399,0.97172,1.5919,1,18.348,10.248,0,0
0.55137,1.4968,1.0421,1.5956,1,18.421,10.321,0,0
0.58649,1.4749,1.1068,1.5981,1,18.494,10.394,0,0
0.62161,1.4529,1.1715,1.6005,1,18.567,10.467,0,0
0.65673,1.431,1.2363,1.603,1,18.64,10.54,0,0
0.69185,1.4091,1.301,1.6054,1,18.714,10.614,0,0
0.72697,1.3872,1.3657,1.6079,1,18.787,10.687,0,0
0.76209,1.3652,1.4305,1.6104,1,18.86,10.76,0,0
0.79721,1.3433,1.4952,1.6128,1,18.933,10.833,0,0
0.83033,1.3229,1.5562,1.6151,1,19.006,10.906,0,0
0.83783,1.3221,1.5699,1.6157,1,19.079,10.979,0,0
0.84532,1.3213,1.5836,1.6162,1,19.152,11.052,0,0
0.85281,1.3204,1.5974,1.6168,1,19.225,11.125,0,0
0.8603,1.3196,1.6111,1.6173,1,19.298,11.198,0,0
0.8678,1.3188,1.6248,1.6179,1,19.372,11.271,0,0
0.87529,1.318,1.6385,1.6184,1,19.445,11.345,0,0
0.88278,1.3172,1.6522,1.619,1,19.518,11.418,0,0
0.89027,1.3163,1.6659,1.6195,1,19.591,11.491,0,0
0.89191,1.3165,1.669,1.6197,1,19.664,11.564,0,0
0.88719,1.3178,1.6607,1.6197,1,19.737,11.637,0,0
0.88248,1.319,1.6524,1.6196,1,19.81,11.71,0,0
0.87776,1.3203,1.6441,1.6195,1,19.883,11.783,0,0
0.87304,1.3215,1.6357,1.6194,1,19.956,11.856,0,0
0.86832,1.3228,1.6274,1.6193,1,20.029,11.929,0,0
0.8636,1.324,1.6191,1.6193,1,20.103,12.002,0,0
0.85889,1.3253,1.6107,1.6192,1,20.176,12.076,0,0
0.85417,1.3265,1.6024,1.6191,1,20.249,12.149,0,0
0.84318,1.3307,1.5827,1.6187,1,20.322,12.222,0,0
0.8309,1.3355,1.5606,1.6183,1,20.395,12.295,0,0
0.81863,1.3402,1.5385,1.6179,1,20.468,12.368,0,0
0.80635,1.345,1.5165,1.6175,1,20.541,12.441,0,0
0.79408,1.3497,1.4944,1.6171,1,20.614,12.514,0,0
0.7818,1.3545,1.4723,1.6167,1,20.687,12.587,0,0
0.76953,1.3593,1.4502,1.6163,1,20.76,12.66,0,0
0.75725,1.364,1.4282,1.6159,1,20.833,12.733,0,0
0.74503,1.3686,1.4061,1.6155,1,20.907,12.807,0,0
0.73324,1.3722,1.3845,1.6149,1,20.98,12.88,0,0
0.72144,1.3757,1.363,1.6144,1,21.053,12.953,0,0
0.70965,1.3793,1.3414,1.6138,1,21.126,13.026,0,0
0.69785,1.3828,1.3198,1.6133,1,21.199,13.099,0,0
0.68605,1.3864,1.2982,1.6127,1,21.272,13.172,0,0
0.67426,1.3899,1.2766,1.6122,1,21.345,13.245,0,0
0.66246,1.3934,1.255,1.6117,1,21.418,13.318,0,0
0.65067,1.397,1.2334,1.6111,1,21.491,13.391,0,0
0.64096,1.3985,1.2157,1.6107,1,21.564,13.464,0,0
0.63501,1.3964,1.2048,1.6105,1,21.638,13.538,0,0
0.62906,1.3943,1.1939,1.6103,1,21.711,13.611,0,0
0.62311,1.3922,1.183,1.6101,1,21.784,13.684,0,0
0.61716,1.3901,1.172,1.6099,1,21.857,13.757,0,0
0.61121,1.388,1.1611,1.6097,1,21.93,13.83,0,0
0.60526,1.386,1.1502,1.6095,1,22.003,13.903,0,0
0.59931,1.3839,1.1393,1.6093,1,22.076,13.976,0,0
0.59336,1.3818,1.1284,1.6091,1,22.149,14.049,0,0
0.58989,1.3786,1.1222,1.6091,1,22.222,14.122,0,0
0.58858,1.3745,1.12,1.6094,1,22.295,14.195,0,0
0.58728,1.3704,1.1179,1.6098,1,22.369,14.269,0,0
0.58597,1.3663,1.1158,1.6101,1,22.442,14.342,0,0
0.58466,1.3622,1.1136,1.6104,1,22.515,14.415,0,0
0.58335,1.3581,1.1115,1.6107,1,22.588,14.488,0,0
0.58205,1.354,1.1093,1.611,1,22.661,14.561,0,0
0.58074,1.3499,1.1072,1.6113,1,22.734,14.634,0,0
0.57943,1.3458,1.1051,1.6116,1,22.807,14.707,0,0
0.5792,1.3431,1.1049,1.6119,1,22.88,14.78,0,0
0.57956,1.3412,1.1057,1.6122,1,22.953,14.853,0,0
0.57992,1.3393,1.1066,1.6124,1,23.027,14.926,0,0
0.58028,1.3374,1.1075,1.6127,1,23.1,15,0,0
0.58065,1.3354,1.1083,1.613,1,23.173,15.073,0,0
0.58101,1.3335,1.1092,1.6133,1,23.246,15.146,0,0
0.58137,1.3316,1.1101,1.6135,1,23.319,15.219,0,0
0.58173,1.3297,1.1109,1.6138,1,23.392,15.292,0,0
0.58209,1.3278,1.1118,1.6141,1,23.465,15.365,0,0
0.58214,1.3272,1.112,1.6142,1,23.538,15.438,0,0
0.58204,1.3271,1.1119,1.6143,1,23.611,15.511,0,0
0.58194,1.3271,1.1118,1.6144,1,23.684,15.584,0,0
0.58185,1.327,1.1117,1.6145,1,23.757,15.657,0,0
0.58175,1.3269,1.1116,1.6146,1,23.831,15.731,0,0
0.58165,1.3268,1.1114,1.6147,1,23.904,15.804,0,0
0.58155,1.3268,1.1113,1.6148,1,23.977,15.877,0,0
0.58145,1.3267,1.1112,1.6149,1,24.05,15.95,0,0
0.58136,1.3266,1.1111,1.6149,1,24.123,16.023,0,0
0.57977,1.3269,1.1083,1.615,1,24.196,16.096,0,0
0.57748,1.3273,1.1041,1.6151,1,24.269,16.169,0,0
0.57519,1.3277,1.1,1.6151,1,24.342,16.242,0,0
0.5729,1.3282,1.0958,1.6152,1,24.415,16.315,0,0
0.57061,1.3286,1.0917,1.6152,1,24.489,16.389,0,0
0.56832,1.329,1.0875,1.6153,1,24.562,16.462,0,0
0.56603,1.3294,1.0834,1.6153,1,24.635,16.535,0,0
0.56374,1.3298,1.0792,1.6154,1,24.708,16.608,0,0
0.56145,1.3303,1.0751,1.6154,1,24.781,16.681,0,0
0.55776,1.3321,1.0682,1.6153,1,24.854,16.754,0,0
0.55318,1.335,1.0596,1.615,1,24.927,16.827,0,0
0.5486,1.3378,1.051,1.6147,1,25,16.9,0,0
0.54401,1.3406,1.0424,1.6145,1,25.073,16.973,0,0
0.53943,1.3434,1.0338,1.6142,1,25.146,17.046,0,0
0.53485,1.3463,1.0252,1.6139,1,25.219,17.119,0,0
0.53026,1.3491,1.0166,1.6136,1,25.293,17.193,0,0
0.52568,1.3519,1.008,1.6134,1,25.366,17.266,0,0
0.5211,1.3547,0.99943,1.6131,1,25.439,17.339,0,0
0.51601,1.3585,0.98982,1.6127,1,25.512,17.412,0,0
0.51036,1.3632,0.97911,1.6123,1,25.585,17.485,0,0
0.50471,1.3679,0.9684,1.6118,1,25.658,17.558,0,0
0.49906,1.3726,0.95768,1.6113,1,25.731,17.631,0,0
0.49342,1.3773,0.94697,1.6109,1,25.804,17.704,0,0
0.48777,1.382,0.93626,1.6104,1,25.877,17.777,0,0
0.48212,1.3867,0.92555,1.6099,1,25.951,17.851,0,0
0.47647,1.3914,0.91484,1.6095,1,26.024,17.924,0,0
0.47082,1.3961,0.90412,1.609,1,26.097,17.997,0,0
0.46533,1.401,0.89368,1.6086,1,26.17,18.07,0,0
0.46022,1.4063,0.88394,1.6081,1,26.243,18.143,0,0
0.45511,1.4117,0.87419,1.6076,1,26.316,18.216,0,0
0.45,1.417,0.86445,1.6071,1,26.389,18.289,0,0
0.4449,1.4223,0.8547,1.6066,1,26.462,18.362,0,0
0.43979,1.4276,0.84496,1.6061,1,26.535,18.435,0,0
0.43468,1.4329,0.83521,1.6056,1,26.608,18.508,0,0
0.42957,1.4382,0.82546,1.6051,1,26.681,18.581,0,0
0.42446,1.4435,0.81572,1.6047,1,26.755,18.655,0,0
0.41939,1.4488,0.80603,1.6042,1,26.828,18.728,0,0
0.41558,1.4537,0.79877,1.6038,1,26.901,18.801,0,0
0.41177,1.4585,0.7915,1.6035,1,26.974,18.874,0,0
0.40796,1.4634,0.78424,1.6032,1,27.047,18.947,0,0
0.40415,1.4682,0.77698,1.6028,1,27.12,19.02,0,0
0.40034,1.4731,0.76971,1.6025,1,27.193,19.093,0,0
0.39652,1.4779,0.76245,1.6021,1,27.266,19.166,0,0
0.39271,1.4827,0.75518,1.6018,1,27.339,19.239,0,0
0.3889,1.4876,0.74792,1.6015,1,27.413,19.312,0,0
0.38509,1.4924,0.74065,1.6011,1,27.486,19.386,0,0
0.38243,1.4961,0.73562,1.601,1,27.559,19.459,0,0
0.38026,1.4993,0.73153,1.6009,1,27.632,19.532,0,0
0.37808,1.5025,0.72743,1.6009,1,27.705,19.605,0,0
0.3759,1.5058,0.72334,1.6008,1,27.778,19.678,0,0
0.37373,1.509,0.71924,1.6007,1,27.851,19.751,0,0
0.37155,1.5122,0.71515,1.6007,1,27.924,19.824,0,0
0.36937,1.5154,0.71105,1.6006,1,27.997,19.897,0,0
0.3672,1.5186,0.70696,1.6005,1,28.07,19.97,0,0
0.36502,1.5218,0.70286,1.6005,1,28.143,20.043,0,0
0.36345,1.5248,0.69993,1.6004,1,28.217,20.117,0,0
0.36318,1.5275,0.69945,1.6005,1,28.29,20.19,0,0
0.3629,1.5301,0.69897,1.6006,1,28.363,20.263,0,0
0.36263,1.5328,0.69849,1.6007,1,28.436,20.336,0,0
0.36235,1.5354,0.69801,1.6007,1,28.509,20.409,0,0
0.36208,1.538,0.69752,1.6008,1,28.582,20.482,0,0
0.3618,1.5407,0.69704,1.6009,1,28.655,20.555,0,0
0.36153,1.5433,0.69656,1.6009,1,28.728,20.628,0,0
0.36125,1.546,0.69608,1.601,1,28.801,20.701,0,0
0.36098,1.5486,0.6956,1.6011,1,28.875,20.774,0,0
0.36217,1.5476,0.69794,1.6013,1,28.948,20.848,0,0
0.36358,1.546,0.70069,1.6016,1,29.021,20.921,0,0
0.36498,1.5444,0.70343,1.6018,1,29.094,20.994,0,0
0.36639,1.5429,0.70618,1.602,1,29.167,21.067,0,0
0.36779,1.5413,0.70892,1.6023,1,29.24,21.14,0,0
0.3692,1.5397,0.71167,1.6025,1,29.313,21.213,0,0
0.3706,1.5382,0.71441,1.6028,1,29.386,21.286,0,0
0.37201,1.5366,0.71716,1.603,1,29.459,21.359,0,0
0.37342,1.535,0.71991,1.6033,1,29.532,21.432,0,0
0.37646,1.5296,0.72583,1.6038,1,29.605,21.505,0,0
0.38238,1.5175,0.73731,1.6046,1,29.679,21.579,0,0
