"Density","Mach","Pressure","Temperature","vtkValidPointMask","arc_length","Points:0","Points:1","Points:2"
6.9237,0.23807,7.6904,1.1107,1,0,-8.1,0,0
6.9233,0.23819,7.6898,1.1107,1,0.0731,-8.0269,0,0
6.9227,0.23847,7.689,1.1107,1,0.1462,-7.9538,0,0
6.9219,0.23895,7.6878,1.1106,1,0.2193,-7.8807,0,0
6.9208,0.23951,7.6861,1.1106,1,0.2924,-7.8076,0,0
6.9196,0.24021,7.6843,1.1105,1,0.3655,-7.7345,0,0
6.9181,0.24102,7.6821,1.1104,1,0.4386,-7.6614,0,0
6.9163,0.24182,7.6794,1.1103,1,0.5117,-7.5883,0,0
6.9153,0.24282,7.6777,1.1102,1,0.5848,-7.5152,0,0
6.913,0.24422,7.674,1.1101,1,0.6579,-7.4421,0,0
6.9099,0.24591,7.6694,1.1099,1,0.731,-7.369,0,0
6.9068,0.24788,7.6645,1.1097,1,0.8041,-7.2959,0,0
6.9028,0.25024,7.6581,1.1094,1,0.8772,-7.2228,0,0
6.8981,0.25248,7.651,1.1092,1,0.9503,-7.1497,0,0
6.8928,0.25455,7.6433,1.1089,1,1.0234,-7.0766,0,0
6.8892,0.25677,7.6375,1.1086,1,1.0965,-7.0035,0,0
6.8848,0.25919,7.6308,1.1084,1,1.1696,-6.9304,0,0
6.8798,0.26173,7.6233,1.1081,1,1.2427,-6.8573,0,0
6.8741,0.26438,7.6145,1.1077,1,1.3158,-6.7842,0,0
6.869,0.26777,7.6068,1.1074,1,1.3889,-6.7111,0,0
6.8612,0.27168,7.5946,1.1069,1,1.462,-6.638,0,0
6.8539,0.27546,7.5833,1.1064,1,1.5351,-6.5649,0,0
6.8466,0.2793,7.572,1.1059,1,1.6082,-6.4918,0,0
6.8386,0.28332,7.5596,1.1054,1,1.6813,-6.4187,0,0
6.8307,0.28758,7.5476,1.105,1,1.7544,-6.3456,0,0
6.8208,0.29221,7.5321,1.1043,1,1.8275,-6.2725,0,0
6.8111,0.29732,7.5173,1.1037,1,1.9006,-6.1994,0,0
6.7998,0.30264,7.5001,1.103,1,1.9737,-6.1263,0,0
6.7875,0.30766,7.4813,1.1022,1,2.0468,-6.0532,0,0
6.7782,0.31265,7.4672,1.1016,1,2.1199,-5.9801,0,0
6.767,0.31801,7.4499,1.1009,1,2.193,-5.907,0,0
6.7549,0.32354,7.4311,1.1001,1,2.2661,-5.8339,0,0
6.7404,0.3295,7.4086,1.0991,1,2.3392,-5.7608,0,0
6.7259,0.33557,7.3862,1.0982,1,2.4123,-5.6877,0,0
6.7123,0.34196,7.3658,1.0974,1,2.4854,-5.6146,0,0
6.6973,0.34855,7.3431,1.0964,1,2.5585,-5.5415,0,0
6.6806,0.35542,7.317,1.0953,1,2.6316,-5.4684,0,0
6.6645,0.36253,7.2923,1.0942,1,2.7047,-5.3953,0,0
6.6487,0.36977,7.2683,1.0932,1,2.7778,-5.3222,0,0
6.6293,0.37721,7.2387,1.0919,1,2.8509,-5.2491,0,0
6.6095,0.38472,7.2088,1.0907,1,2.924,-5.176,0,0
6.5901,0.39245,7.1799,1.0895,1,2.9971,-5.1029,0,0
6.5691,0.40048,7.1485,1.0882,1,3.0702,-5.0298,0,0
6.5456,0.40901,7.1126,1.0866,1,3.1433,-4.9567,0,0
6.5226,0.41766,7.0778,1.0851,1,3.2164,-4.8836,0,0
6.5,0.42638,7.0438,1.0837,1,3.2895,-4.8105,0,0
6.4745,0.43526,7.0051,1.082,1,3.3626,-4.7374,0,0
6.4485,0.4442,6.9657,1.0802,1,3.4357,-4.6643,0,0
6.4249,0.45349,6.93,1.0786,1,3.5088,-4.5912,0,0
6.3995,0.46305,6.892,1.077,1,3.5819,-4.5181,0,0
6.3685,0.47394,6.8458,1.075,1,3.655,-4.445,0,0
6.3346,0.48614,6.7943,1.0726,1,3.7281,-4.3719,0,0
6.2969,0.4976,6.7383,1.0701,1,3.8012,-4.2988,0,0
6.2637,0.50844,6.6888,1.0679,1,3.8743,-4.2257,0,0
6.2332,0.51935,6.6428,1.0657,1,3.9474,-4.1526,0,0
6.1931,0.53137,6.5833,1.063,1,4.0205,-4.0795,0,0
6.1526,0.54343,6.5233,1.0603,1,4.0936,-4.0064,0,0
6.1157,0.55487,6.469,1.0577,1,4.1667,-3.9333,0,0
6.0789,0.56632,6.4147,1.0552,1,4.2398,-3.8602,0,0
6.042,0.57776,6.3604,1.0527,1,4.3129,-3.7871,0,0
6.0036,0.58933,6.304,1.05,1,4.386,-3.714,0,0
5.9636,0.60101,6.2456,1.0472,1,4.4591,-3.6409,0,0
5.9236,0.6127,6.1873,1.0445,1,4.5322,-3.5678,0,0
5.8837,0.62438,6.129,1.0417,1,4.6053,-3.4947,0,0
5.8427,0.63641,6.0694,1.0388,1,4.6784,-3.4216,0,0
5.8013,0.64859,6.0091,1.0358,1,4.7515,-3.3485,0,0
5.757,0.66168,5.9448,1.0326,1,4.8246,-3.2754,0,0
5.711,0.67499,5.8784,1.0293,1,4.8977,-3.2023,0,0
5.6611,0.68894,5.8071,1.0258,1,4.9708,-3.1292,0,0
5.6099,0.70355,5.7339,1.0221,1,5.0439,-3.0561,0,0
5.5563,0.71855,5.6572,1.0182,1,5.117,-2.983,0,0
5.5066,0.73216,5.5866,1.0145,1,5.1901,-2.9099,0,0
5.4552,0.74633,5.5138,1.0107,1,5.2632,-2.8368,0,0
5.4012,0.7611,5.4376,1.0067,1,5.3363,-2.7637,0,0
5.3421,0.77692,5.3541,1.0023,1,5.4094,-2.6906,0,0
5.2903,0.791,5.2815,0.99832,1,5.4825,-2.6175,0,0
5.2369,0.80563,5.2065,0.99419,1,5.5556,-2.5444,0,0
5.1811,0.82063,5.1288,0.9899,1,5.6287,-2.4713,0,0
5.1255,0.83551,5.0518,0.98562,1,5.7018,-2.3982,0,0
5.0704,0.85017,4.9761,0.98138,1,5.7749,-2.3251,0,0
5.0151,0.865,4.9,0.97706,1,5.848,-2.252,0,0
4.9569,0.88043,4.8207,0.97252,1,5.9211,-2.1789,0,0
4.8986,0.89584,4.7416,0.96793,1,5.9942,-2.1058,0,0
4.8393,0.91151,4.6614,0.96324,1,6.0673,-2.0327,0,0
4.7796,0.9274,4.581,0.95845,1,6.1404,-1.9596,0,0
4.7161,0.94372,4.4962,0.95338,1,6.2135,-1.8865,0,0
4.6591,0.95891,4.4204,0.94872,1,6.2866,-1.8134,0,0
4.602,0.97416,4.3445,0.94403,1,6.3597,-1.7403,0,0
4.5442,0.9897,4.2682,0.93923,1,6.4328,-1.6672,0,0
4.4858,1.0054,4.1916,0.93437,1,6.5059,-1.5941,0,0
4.4265,1.0212,4.1141,0.92938,1,6.579,-1.521,0,0
4.3676,1.0372,4.0374,0.92435,1,6.6521,-1.4479,0,0
4.3094,1.0534,3.9617,0.91928,1,6.7252,-1.3748,0,0
4.2469,1.0707,3.8808,0.91381,1,6.7983,-1.3017,0,0
4.1792,1.0888,3.7945,0.90793,1,6.8714,-1.2286,0,0
4.1196,1.1048,3.7191,0.90277,1,6.9445,-1.1555,0,0
4.0592,1.1209,3.6434,0.89756,1,7.0176,-1.0824,0,0
3.9984,1.1379,3.5674,0.89213,1,7.0907,-1.0093,0,0
3.9374,1.1551,3.4912,0.88666,1,7.1638,-0.9362,0,0
3.8739,1.1736,3.4123,0.88077,1,7.2369,-0.8631,0,0
3.8077,1.1928,3.3302,0.8746,1,7.31,-0.79,0,0
3.7268,1.216,3.2312,0.86701,1,7.3831,-0.7169,0,0
3.6595,1.2353,3.1494,0.86061,1,7.4562,-0.6438,0,0
3.607,1.2505,3.0862,0.85561,1,7.5293,-0.5707,0,0
3.5517,1.2653,3.0222,0.85084,1,7.6024,-0.4976,0,0
3.4858,1.2852,2.9434,0.84432,1,7.6755,-0.4245,0,0
3.4173,1.306,2.8625,0.83754,1,7.7486,-0.3514,0,0
3.3465,1.3273,2.7797,0.83054,1,7.8217,-0.2783,0,0
3.2747,1.35,2.6961,0.82318,1,7.8948,-0.2052,0,0
3.2024,1.3733,2.6121,0.81563,1,7.9679,-0.1321,0,0
3.1237,1.3976,2.5225,0.80751,1,8.041,-0.059,0,0
3.0507,1.4211,2.4402,0.79986,1,8.1141,0.0141,0,0
2.982,1.4442,2.3629,0.79236,1,8.1872,0.0872,0,0
2.9272,1.461,2.3032,0.78684,1,8.2603,0.1603,0,0
2.8779,1.477,2.2497,0.78171,1,8.3334,0.2334,0,0
2.8247,1.4956,2.1921,0.77604,1,8.4065,0.3065,0,0
2.7358,1.5274,2.0952,0.76585,1,8.4796,0.3796,0,0
2.6601,1.5542,2.0144,0.75726,1,8.5527,0.4527,0,0
2.6072,1.5726,1.959,0.75137,1,8.6258,0.5258,0,0
2.555,1.592,1.9048,0.74548,1,8.6989,0.5989,0,0
2.4955,1.6151,1.8426,0.73832,1,8.772,0.672,0,0
2.431,1.6409,1.7753,0.73027,1,8.8451,0.7451,0,0
2.3683,1.6644,1.7114,0.72265,1,8.9182,0.8182,0,0
2.3286,1.6791,1.6724,0.71816,1,8.9913,0.8913,0,0
2.2867,1.6982,1.6296,0.71262,1,9.0644,0.9644,0,0
2.2452,1.7174,1.5873,0.70696,1,9.1375,1.0375,0,0
2.2012,1.7351,1.544,0.70141,1,9.2106,1.1106,0,0
2.1658,1.7486,1.5098,0.69706,1,9.2837,1.1837,0,0
2.134,1.7607,1.4792,0.69313,1,9.3568,1.2568,0,0
2.1077,1.7721,1.4541,0.68988,1,9.4299,1.3299,0,0
2.0828,1.7833,1.4305,0.68681,1,9.503,1.403,0,0
2.0563,1.7962,1.4049,0.68309,1,9.5761,1.4761,0,0
2.0295,1.8092,1.379,0.67928,1,9.6492,1.5492,0,0
2.0028,1.8223,1.3531,0.67546,1,9.7223,1.6223,0,0
1.9759,1.8354,1.3271,0.67164,1,9.7954,1.6954,0,0
1.9447,1.8506,1.2976,0.66716,1,9.8685,1.7685,0,0
1.9138,1.8656,1.2683,0.66273,1,9.9416,1.8416,0,0
1.8852,1.8797,1.2418,0.65864,1,10.015,1.9147,0,0
1.8573,1.8936,1.2158,0.65461,1,10.088,1.9878,0,0
1.8334,1.9059,1.1936,0.65101,1,10.161,2.0609,0,0
1.8137,1.9157,1.1757,0.64826,1,10.234,2.134,0,0
1.7964,1.9243,1.1601,0.64577,1,10.307,2.2071,0,0
1.7842,1.9299,1.1492,0.64411,1,10.38,2.2802,0,0
1.7762,1.9318,1.143,0.64348,1,10.453,2.3533,0,0
1.7697,1.9333,1.1379,0.64297,1,10.526,2.4264,0,0
1.766,1.9339,1.135,0.64266,1,10.599,2.4995,0,0
1.7641,1.9344,1.1332,0.64237,1,10.673,2.5726,0,0
1.7645,1.9346,1.133,0.6421,1,10.746,2.6457,0,0
1.766,1.934,1.1341,0.64217,1,10.819,2.7188,0,0
1.7688,1.9324,1.1367,0.64266,1,10.892,2.7919,0,0
1.7734,1.9299,1.1409,0.64337,1,10.965,2.865,0,0
1.7797,1.9266,1.1467,0.64429,1,11.038,2.9381,0,0
1.7894,1.9215,1.1554,0.64571,1,11.111,3.0112,0,0
1.8056,1.913,1.1702,0.64812,1,11.184,3.0843,0,0
1.8291,1.9007,1.1919,0.65161,1,11.257,3.1574,0,0
1.8596,1.8857,1.2199,0.65597,1,11.33,3.2305,0,0
1.8866,1.8728,1.2447,0.65976,1,11.404,3.3036,0,0
1.914,1.8596,1.2702,0.66363,1,11.477,3.3767,0,0
1.9422,1.8463,1.2965,0.66752,1,11.55,3.4498,0,0
1.9701,1.8332,1.3226,0.67136,1,11.623,3.5229,0,0
1.9943,1.8219,1.3455,0.67469,1,11.696,3.596,0,0
2.0129,1.8133,1.3632,0.67722,1,11.769,3.6691,0,0
2.025,1.8078,1.3746,0.67885,1,11.842,3.7422,0,0
2.0298,1.8059,1.3791,0.67943,1,11.915,3.8153,0,0
2.0294,1.8063,1.3787,0.67937,1,11.988,3.8884,0,0
2.0239,1.8088,1.3735,0.67863,1,12.062,3.9615,0,0
2.0132,1.8138,1.3633,0.67719,1,12.135,4.0346,0,0
1.9967,1.8215,1.3476,0.67494,1,12.208,4.1077,0,0
1.9745,1.8318,1.3267,0.6719,1,12.281,4.1808,0,0
1.9484,1.8441,1.302,0.66826,1,12.354,4.2539,0,0
1.9054,1.8648,1.2617,0.66217,1,12.427,4.327,0,0
1.8757,1.8791,1.2342,0.658,1,12.5,4.4001,0,0
1.8467,1.8929,1.2077,0.65395,1,12.573,4.4732,0,0
1.8203,1.9068,1.1833,0.65005,1,12.646,4.5463,0,0
1.7902,1.9213,1.1561,0.6458,1,12.719,4.6194,0,0
1.7632,1.9339,1.1325,0.64228,1,12.792,4.6925,0,0
1.7337,1.9499,1.1061,0.6379,1,12.866,4.7656,0,0
1.7035,1.9666,1.0789,0.63334,1,12.939,4.8387,0,0
1.6634,1.988,1.0433,0.62719,1,13.012,4.9118,0,0
1.6198,2.0125,1.0052,0.62054,1,13.085,4.9849,0,0
1.5599,2.0477,0.953,0.61091,1,13.158,5.058,0,0
1.5169,2.0709,0.91682,0.60438,1,13.231,5.1311,0,0
1.4874,2.088,0.89204,0.59972,1,13.304,5.2042,0,0
1.4586,2.1068,0.86766,0.59484,1,13.377,5.2773,0,0
1.4238,2.1289,0.83854,0.58893,1,13.45,5.3504,0,0
1.3942,2.1466,0.8145,0.58419,1,13.524,5.4235,0,0
1.3655,2.1664,0.79079,0.5791,1,13.597,5.4966,0,0
1.3255,2.194,0.75809,0.57194,1,13.67,5.5697,0,0
1.2999,2.2111,0.73773,0.56752,1,13.743,5.6428,0,0
1.2777,2.225,0.7206,0.56398,1,13.816,5.7159,0,0
1.2539,2.2415,0.70219,0.55998,1,13.889,5.789,0,0
1.2187,2.268,0.67447,0.55341,1,13.962,5.8621,0,0
1.189,2.2895,0.65152,0.54795,1,14.035,5.9352,0,0
1.1657,2.3069,0.63377,0.54367,1,14.108,6.0083,0,0
1.1371,2.3293,0.61197,0.5382,1,14.181,6.0814,0,0
1.1114,2.3496,0.59276,0.53333,1,14.254,6.1545,0,0
1.0866,2.3696,0.5743,0.52854,1,14.328,6.2276,0,0
1.0698,2.3822,0.56247,0.52578,1,14.401,6.3007,0,0
1.0488,2.4009,0.547,0.52153,1,14.474,6.3738,0,0
1.0249,2.4227,0.52939,0.51649,1,14.547,6.4469,0,0
0.99859,2.4472,0.51021,0.51089,1,14.62,6.52,0,0
0.97036,2.4733,0.49002,0.50498,1,14.693,6.5931,0,0
0.93452,2.5084,0.46458,0.49714,1,14.766,6.6662,0,0
0.91025,2.5315,0.44783,0.49198,1,14.839,6.7393,0,0
0.89759,2.5398,0.43984,0.49002,1,14.912,6.8124,0,0
0.88245,2.5558,0.42949,0.48668,1,14.986,6.8855,0,0
0.86461,2.5752,0.41724,0.48255,1,15.059,6.9586,0,0
0.84115,2.601,0.40129,0.47707,1,15.132,7.0317,0,0
0.81178,2.6339,0.3816,0.47008,1,15.205,7.1048,0,0
0.79847,2.6475,0.37305,0.4672,1,15.278,7.1779,0,0
0.78513,2.6616,0.36475,0.46457,1,15.351,7.251,0,0
0.76548,2.686,0.35185,0.45964,1,15.424,7.3241,0,0
0.75193,2.7007,0.3433,0.45655,1,15.497,7.3972,0,0
0.74186,2.7118,0.33702,0.45428,1,15.57,7.4703,0,0
0.73205,2.7238,0.33091,0.45201,1,15.643,7.5434,0,0
0.72047,2.7395,0.32357,0.44906,1,15.717,7.6165,0,0
0.70648,2.7585,0.31472,0.44548,1,15.79,7.6896,0,0
0.6809,2.7941,0.29864,0.4386,1,15.863,7.7627,0,0
0.67022,2.8075,0.29223,0.43601,1,15.936,7.8358,0,0
0.65589,2.8282,0.28343,0.43213,1,16.009,7.9089,0,0
0.63819,2.8547,0.27264,0.4272,1,16.082,7.982,0,0
0.61586,2.8882,0.25925,0.42095,1,16.155,8.0551,0,0
0.60157,2.9104,0.2508,0.4169,1,16.228,8.1282,0,0
0.58343,2.9403,0.24009,0.41152,1,16.301,8.2013,0,0
0.57418,2.9532,0.23495,0.40919,1,16.374,8.2744,0,0
0.56607,2.9657,0.23043,0.40703,1,16.448,8.3475,0,0
0.55779,2.9791,0.22574,0.4047,1,16.521,8.4206,0,0
0.54936,2.9934,0.22101,0.4023,1,16.594,8.4937,0,0
0.53771,3.0143,0.2144,0.39874,1,16.667,8.5668,0,0
0.52188,3.0438,0.20548,0.39373,1,16.74,8.6399,0,0
0.51065,3.0639,0.19931,0.3903,1,16.813,8.713,0,0
0.50194,3.0786,0.19465,0.38779,1,16.886,8.7861,0,0
0.4951,3.0913,0.19098,0.38574,1,16.959,8.8592,0,0
0.48843,3.1019,0.18757,0.38402,1,17.032,8.9323,0,0
0.48119,3.1167,0.18366,0.38168,1,17.105,9.0054,0,0
0.47011,3.1398,0.1777,0.378,1,17.179,9.0785,0,0
0.45675,3.1682,0.17058,0.37347,1,17.252,9.1516,0,0
0.44986,3.1824,0.16698,0.37118,1,17.325,9.2247,0,0
0.44395,3.1939,0.16398,0.36936,1,17.398,9.2978,0,0
0.43802,3.2078,0.16086,0.36723,1,17.471,9.3709,0,0
0.43139,3.2234,0.1574,0.36485,1,17.544,9.444,0,0
0.42244,3.2435,0.15282,0.36175,1,17.617,9.5171,0,0
0.41212,3.2687,0.14748,0.35786,1,17.69,9.5902,0,0
0.4023,3.2938,0.14247,0.35413,1,17.763,9.6633,0,0
0.3972,3.3051,0.14001,0.35249,1,17.836,9.7364,0,0
0.39245,3.3158,0.13772,0.35093,1,17.91,9.8095,0,0
0.38765,3.3274,0.13538,0.34922,1,17.983,9.8826,0,0
0.38326,3.3383,0.13327,0.34773,1,18.056,9.9557,0,0
0.37717,3.3533,0.13034,0.34557,1,18.129,10.029,0,0
0.36833,3.3774,0.12603,0.34216,1,18.202,10.102,0,0
0.36098,3.3976,0.12248,0.33931,1,18.275,10.175,0,0
0.35613,3.4101,0.12021,0.33755,1,18.348,10.248,0,0
0.35194,3.4199,0.11832,0.33618,1,18.421,10.321,0,0
0.34767,3.4326,0.11628,0.33445,1,18.494,10.394,0,0
0.34304,3.4465,0.11408,0.33256,1,18.567,10.467,0,0
0.33788,3.4624,0.11164,0.3304,1,18.64,10.54,0,0
0.33136,3.483,0.10856,0.32763,1,18.714,10.614,0,0
0.32258,3.51,0.10453,0.32403,1,18.787,10.687,0,0
0.31602,3.5303,0.10158,0.32143,1,18.86,10.76,0,0
0.31241,3.5418,0.099965,0.31998,1,18.933,10.833,0,0
0.30852,3.5538,0.098243,0.31843,1,19.006,10.906,0,0
0.30413,3.5683,0.096292,0.31661,1,19.079,10.979,0,0
0.29976,3.5829,0.094361,0.31479,1,19.152,11.052,0,0
0.2957,3.5969,0.092569,0.31305,1,19.225,11.125,0,0
0.29151,3.6118,0.090721,0.31121,1,19.298,11.198,0,0
0.28761,3.6248,0.089045,0.3096,1,19.372,11.271,0,0
0.28287,3.642,0.086981,0.3075,1,19.445,11.345,0,0
0.27878,3.6566,0.085231,0.30572,1,19.518,11.418,0,0
0.3391,3.3056,0.13212,0.35264,1,19.591,11.491,0,0
1.2086,0.58243,1.2246,1.0132,1,19.664,11.564,0,0
1.1838,0.55588,1.2294,1.0385,1,19.737,11.637,0,0
1.1763,0.55173,1.23,1.0457,1,19.81,11.71,0,0
1.1751,0.55014,1.2302,1.0469,1,19.883,11.783,0,0
1.1838,0.52496,1.2353,1.0435,1,19.956,11.856,0,0
1.1839,0.49713,1.2393,1.0468,1,20.029,11.929,0,0
1.1875,0.47575,1.2451,1.0485,1,20.103,12.002,0,0
1.1929,0.4603,1.2537,1.051,1,20.176,12.076,0,0
1.2078,0.42998,1.2786,1.0587,1,20.249,12.149,0,0
1.2187,0.41855,1.2957,1.0632,1,20.322,12.222,0,0
1.2251,0.41827,1.3048,1.0651,1,20.395,12.295,0,0
1.2275,0.4143,1.3094,1.0667,1,20.468,12.368,0,0
1.2282,0.40655,1.3125,1.0686,1,20.541,12.441,0,0
1.2286,0.39768,1.315,1.0703,1,20.614,12.514,0,0
1.2288,0.38669,1.317,1.0717,1,20.687,12.587,0,0
1.226,0.36344,1.3192,1.076,1,20.76,12.66,0,0
1.2292,0.34618,1.3244,1.0774,1,20.833,12.733,0,0
1.2317,0.33582,1.3287,1.0788,1,20.907,12.807,0,0
1.2333,0.33274,1.3314,1.0795,1,20.98,12.88,0,0
1.2355,0.33535,1.3344,1.08,1,21.053,12.953,0,0
1.2413,0.35057,1.3385,1.0783,1,21.126,13.026,0,0
1.2428,0.3548,1.3414,1.0793,1,21.199,13.099,0,0
1.2419,0.36203,1.3399,1.0789,1,21.272,13.172,0,0
1.2453,0.37501,1.3423,1.0779,1,21.345,13.245,0,0
1.2433,0.37798,1.34,1.0778,1,21.418,13.318,0,0
1.2402,0.38268,1.3375,1.0784,1,21.491,13.391,0,0
1.2392,0.38145,1.3366,1.0786,1,21.564,13.464,0,0
1.2367,0.3815,1.3345,1.0791,1,21.638,13.538,0,0
1.2359,0.38038,1.3378,1.0825,1,21.711,13.611,0,0
1.2373,0.37246,1.3408,1.0837,1,21.784,13.684,0,0
1.2389,0.36527,1.3428,1.0838,1,21.857,13.757,0,0
1.2423,0.3559,1.3524,1.0886,1,21.93,13.83,0,0
1.2563,0.32421,1.3729,1.0928,1,22.003,13.903,0,0
1.2699,0.27294,1.4005,1.1028,1,22.076,13.976,0,0
1.2483,0.20779,1.3839,1.1086,1,22.149,14.049,0,0
1.2384,0.17551,1.3693,1.1059,1,22.222,14.122,0,0
1.2516,0.17321,1.3796,1.1027,1,22.295,14.195,0,0
1.2649,0.17092,1.39,1.0994,1,22.369,14.269,0,0
1.2782,0.16862,1.4003,1.0961,1,22.442,14.342,0,0
1.2915,0.16632,1.4106,1.0929,1,22.515,14.415,0,0
1.3048,0.16402,1.4209,1.0896,1,22.588,14.488,0,0
1.3181,0.16173,1.4312,1.0863,1,22.661,14.561,0,0
1.3313,0.15943,1.4415,1.0831,1,22.734,14.634,0,0
1.3446,0.15713,1.4518,1.0798,1,22.807,14.707,0,0
1.3606,0.1577,1.4683,1.0791,1,22.88,14.78,0,0
1.3782,0.15983,1.4882,1.0797,1,22.953,14.853,0,0
1.3957,0.16197,1.5081,1.0804,1,23.027,14.926,0,0
1.4132,0.16411,1.528,1.081,1,23.1,15,0,0
1.4308,0.16625,1.5479,1.0817,1,23.173,15.073,0,0
1.4483,0.16838,1.5678,1.0823,1,23.246,15.146,0,0
1.4658,0.17052,1.5877,1.083,1,23.319,15.219,0,0
1.4834,0.17266,1.6076,1.0836,1,23.392,15.292,0,0
1.5009,0.17479,1.6275,1.0843,1,23.465,15.365,0,0
1.5081,0.18015,1.6355,1.0845,1,23.538,15.438,0,0
1.5107,0.18694,1.6383,1.0845,1,23.611,15.511,0,0
1.5133,0.19372,1.6411,1.0844,1,23.684,15.584,0,0
1.5159,0.2005,1.6439,1.0844,1,23.757,15.657,0,0
1.5185,0.20729,1.6467,1.0844,1,23.831,15.731,0,0
1.5211,0.21407,1.6495,1.0844,1,23.904,15.804,0,0
1.5237,0.22085,1.6522,1.0843,1,23.977,15.877,0,0
1.5264,0.22764,1.655,1.0843,1,24.05,15.95,0,0
1.529,0.23442,1.6578,1.0843,1,24.123,16.023,0,0
1.5272,0.2438,1.6546,1.0834,1,24.196,16.096,0,0
1.5234,0.25438,1.6487,1.0822,1,24.269,16.169,0,0
1.5195,0.26496,1.6427,1.081,1,24.342,16.242,0,0
1.5157,0.27555,1.6367,1.0798,1,24.415,16.315,0,0
1.5119,0.28613,1.6307,1.0785,1,24.489,16.389,0,0
1.5081,0.29672,1.6247,1.0773,1,24.562,16.462,0,0
1.5042,0.3073,1.6188,1.0761,1,24.635,16.535,0,0
1.5004,0.31789,1.6128,1.0749,1,24.708,16.608,0,0
1.4966,0.32847,1.6068,1.0736,1,24.781,16.681,0,0
1.4932,0.33981,1.6007,1.072,1,24.854,16.754,0,0
1.49,0.35162,1.5945,1.0701,1,24.927,16.827,0,0
1.4868,0.36344,1.5884,1.0683,1,25,16.9,0,0
1.4836,0.37525,1.5822,1.0664,1,25.073,16.973,0,0
1.4804,0.38707,1.576,1.0645,1,25.146,17.046,0,0
1.4772,0.39888,1.5699,1.0627,1,25.219,17.119,0,0
1.474,0.41069,1.5637,1.0608,1,25.293,17.193,0,0
1.4708,0.42251,1.5576,1.0589,1,25.366,17.266,0,0
1.4676,0.43432,1.5514,1.057,1,25.439,17.339,0,0
1.4641,0.44651,1.5446,1.055,1,25.512,17.412,0,0
1.4603,0.45911,1.5372,1.0526,1,25.585,17.485,0,0
1.4564,0.47171,1.5298,1.0503,1,25.658,17.558,0,0
1.4525,0.4843,1.5224,1.048,1,25.731,17.631,0,0
1.4487,0.4969,1.515,1.0457,1,25.804,17.704,0,0
1.4448,0.5095,1.5076,1.0433,1,25.877,17.777,0,0
1.441,0.5221,1.5002,1.041,1,25.951,17.851,0,0
1.4371,0.53469,1.4928,1.0387,1,26.024,17.924,0,0
1.4332,0.54729,1.4854,1.0363,1,26.097,17.997,0,0
1.4288,0.56007,1.4773,1.0339,1,26.17,18.07,0,0
1.4229,0.57332,1.4673,1.0311,1,26.243,18.143,0,0
1.417,0.58657,1.4574,1.0283,1,26.316,18.216,0,0
1.4111,0.59982,1.4475,1.0255,1,26.389,18.289,0,0
1.4052,0.61307,1.4375,1.0227,1,26.462,18.362,0,0
1.3993,0.62632,1.4276,1.0199,1,26.535,18.435,0,0
1.3934,0.63957,1.4177,1.0172,1,26.608,18.508,0,0
1.3876,0.65282,1.4077,1.0144,1,26.681,18.581,0,0
1.3817,0.66607,1.3978,1.0116,1,26.755,18.655,0,0
1.3757,0.67932,1.3878,1.0088,1,26.828,18.728,0,0
1.3677,0.6929,1.3755,1.0055,1,26.901,18.801,0,0
1.3597,0.70647,1.3632,1.0023,1,26.974,18.874,0,0
1.3516,0.72004,1.3509,0.99907,1,27.047,18.947,0,0
1.3436,0.73361,1.3386,0.99583,1,27.12,19.02,0,0
1.3356,0.74719,1.3263,0.9926,1,27.193,19.093,0,0
1.3276,0.76076,1.314,0.98936,1,27.266,19.166,0,0
1.3195,0.77433,1.3017,0.98612,1,27.339,19.239,0,0
1.3115,0.78791,1.2893,0.98289,1,27.413,19.312,0,0
1.3035,0.80148,1.277,0.97965,1,27.486,19.386,0,0
1.2946,0.81498,1.264,0.97619,1,27.559,19.459,0,0
1.2853,0.82846,1.2505,0.97264,1,27.632,19.532,0,0
1.276,0.84194,1.2371,0.96909,1,27.705,19.605,0,0
1.2667,0.85542,1.2237,0.96553,1,27.778,19.678,0,0
1.2574,0.86889,1.2103,0.96198,1,27.851,19.751,0,0
1.2481,0.88237,1.1969,0.95843,1,27.924,19.824,0,0
1.2388,0.89585,1.1835,0.95487,1,27.997,19.897,0,0
1.2295,0.90932,1.1701,0.95132,1,28.07,19.97,0,0
1.2202,0.9228,1.1567,0.94777,1,28.143,20.043,0,0
1.2108,0.93611,1.1433,0.94419,1,28.217,20.117,0,0
1.2012,0.94908,1.1301,0.94055,1,28.29,20.19,0,0
1.1915,0.96204,1.1169,0.93691,1,28.363,20.263,0,0
1.1819,0.975,1.1037,0.93327,1,28.436,20.336,0,0
1.1722,0.98797,1.0905,0.92964,1,28.509,20.409,0,0
1.1626,1.0009,1.0773,0.926,1,28.582,20.482,0,0
1.153,1.0139,1.0641,0.92236,1,28.655,20.555,0,0
1.1433,1.0269,1.0509,0.91873,1,28.728,20.628,0,0
1.1337,1.0398,1.0378,0.91509,1,28.801,20.701,0,0
1.124,1.0528,1.0246,0.91145,1,28.875,20.774,0,0
1.1147,1.0652,1.0122,0.90782,1,28.948,20.848,0,0
1.1053,1.0774,0.99992,0.90419,1,29.021,20.921,0,0
1.096,1.0897,0.98765,0.90056,1,29.094,20.994,0,0
1.0867,1.102,0.97539,0.89692,1,29.167,21.067,0,0
1.0773,1.1143,0.96313,0.89329,1,29.24,21.14,0,0
1.068,1.1266,0.95087,0.88966,1,29.313,21.213,0,0
1.0586,1.1389,0.9386,0.88603,1,29.386,21.286,0,0
1.0493,1.1512,0.92634,0.8824,1,29.459,21.359,0,0
1.04,1.1635,0.91408,0.87877,1,29.532,21.432,0,0
