"Density","Mach","Pressure","Temperature","vtkValidPointMask","arc_length","Points:0","Points:1","Points:2"
6.9229,0.23906,7.6888,1.1106,1,0,-8.1,0,0
6.9211,0.23984,7.6859,1.1105,1,0.0731,-8.0269,0,0
6.9192,0.24062,7.6831,1.1104,1,0.1462,-7.9538,0,0
6.9173,0.24139,7.6802,1.1103,1,0.2193,-7.8807,0,0
6.9154,0.24217,7.6773,1.1102,1,0.2924,-7.8076,0,0
6.9135,0.24295,7.6745,1.1101,1,0.3655,-7.7345,0,0
6.9116,0.24373,7.6716,1.11,1,0.4386,-7.6614,0,0
6.9094,0.24466,7.6683,1.1098,1,0.5117,-7.5883,0,0
6.9059,0.24631,7.6632,1.1097,1,0.5848,-7.5152,0,0
6.9023,0.24796,7.658,1.1095,1,0.6579,-7.4421,0,0
6.8988,0.24961,7.6529,1.1093,1,0.731,-7.369,0,0
6.8953,0.25126,7.6478,1.1091,1,0.8041,-7.2959,0,0
6.8917,0.25291,7.6426,1.109,1,0.8772,-7.2228,0,0
6.8882,0.25456,7.6375,1.1088,1,0.9503,-7.1497,0,0
6.8839,0.25654,7.6312,1.1086,1,1.0234,-7.0766,0,0
6.878,0.25928,7.6223,1.1082,1,1.0965,-7.0035,0,0
6.8721,0.26201,7.6135,1.1079,1,1.1696,-6.9304,0,0
6.8662,0.26474,7.6046,1.1075,1,1.2427,-6.8573,0,0
6.8603,0.26748,7.5957,1.1072,1,1.3158,-6.7842,0,0
6.8544,0.27021,7.5869,1.1069,1,1.3889,-6.7111,0,0
6.8485,0.27294,7.578,1.1065,1,1.462,-6.638,0,0
6.8413,0.2763,7.5672,1.1061,1,1.5351,-6.5649,0,0
6.8323,0.28057,7.5537,1.1056,1,1.6082,-6.4918,0,0
6.8232,0.28485,7.5402,1.1051,1,1.6813,-6.4187,0,0
6.8142,0.28913,7.5266,1.1046,1,1.7544,-6.3456,0,0
6.8051,0.2934,7.5131,1.104,1,1.8275,-6.2725,0,0
6.7961,0.29768,7.4996,1.1035,1,1.9006,-6.1994,0,0
6.787,0.30195,7.486,1.103,1,1.9737,-6.1263,0,0
6.776,0.3069,7.4694,1.1023,1,2.0468,-6.0532,0,0
6.7624,0.31272,7.4487,1.1015,1,2.1199,-5.9801,0,0
6.7488,0.31854,7.428,1.1006,1,2.193,-5.907,0,0
6.7352,0.32436,7.4073,1.0998,1,2.2661,-5.8339,0,0
6.7216,0.33018,7.3867,1.0989,1,2.3392,-5.7608,0,0
6.708,0.336,7.366,1.0981,1,2.4123,-5.6877,0,0
6.6945,0.34182,7.3453,1.0972,1,2.4854,-5.6146,0,0
6.6789,0.34831,7.3218,1.0962,1,2.5585,-5.5415,0,0
6.6608,0.3557,7.2946,1.0951,1,2.6316,-5.4684,0,0
6.6426,0.36309,7.2674,1.094,1,2.7047,-5.3953,0,0
6.6245,0.37048,7.2402,1.0929,1,2.7778,-5.3222,0,0
6.6063,0.37787,7.213,1.0918,1,2.8509,-5.2491,0,0
6.5882,0.38526,7.1858,1.0907,1,2.924,-5.176,0,0
6.57,0.39265,7.1585,1.0896,1,2.9971,-5.1029,0,0
6.5488,0.40067,7.1266,1.0882,1,3.0702,-5.0298,0,0
6.5224,0.40973,7.0869,1.0865,1,3.1433,-4.9567,0,0
6.4961,0.41879,7.0473,1.0848,1,3.2164,-4.8836,0,0
6.4697,0.42785,7.0076,1.083,1,3.2895,-4.8105,0,0
6.4434,0.43692,6.9679,1.0813,1,3.3626,-4.7374,0,0
6.4171,0.44598,6.9283,1.0796,1,3.4357,-4.6643,0,0
6.3907,0.45504,6.8886,1.0779,1,3.5088,-4.5912,0,0
6.3631,0.46454,6.8472,1.0761,1,3.5819,-4.5181,0,0
6.3323,0.47522,6.8014,1.074,1,3.655,-4.445,0,0
6.3014,0.4859,6.7555,1.072,1,3.7281,-4.3719,0,0
6.2705,0.49658,6.7097,1.0699,1,3.8012,-4.2988,0,0
6.2397,0.50726,6.6639,1.0679,1,3.8743,-4.2257,0,0
6.2088,0.51794,6.618,1.0658,1,3.9474,-4.1526,0,0
6.1779,0.52862,6.5722,1.0638,1,4.0205,-4.0795,0,0
6.1458,0.53951,6.5245,1.0616,1,4.0936,-4.0064,0,0
6.1042,0.55196,6.463,1.0586,1,4.1667,-3.9333,0,0
6.0626,0.56442,6.4015,1.0557,1,4.2398,-3.8602,0,0
6.0211,0.57688,6.34,1.0527,1,4.3129,-3.7871,0,0
5.9795,0.58933,6.2785,1.0497,1,4.386,-3.714,0,0
5.9379,0.60179,6.217,1.0468,1,4.4591,-3.6409,0,0
5.8963,0.61425,6.1555,1.0438,1,4.5322,-3.5678,0,0
5.8548,0.6267,6.094,1.0409,1,4.6053,-3.4947,0,0
5.8073,0.63982,6.0262,1.0375,1,4.6784,-3.4216,0,0
5.7594,0.653,5.9578,1.0342,1,4.7515,-3.3485,0,0
5.7114,0.66618,5.8894,1.0308,1,4.8246,-3.2754,0,0
5.6635,0.67936,5.821,1.0274,1,4.8977,-3.2023,0,0
5.6156,0.69253,5.7526,1.0241,1,4.9708,-3.1292,0,0
5.5676,0.70571,5.6841,1.0207,1,5.0439,-3.0561,0,0
5.5197,0.71889,5.6157,1.0173,1,5.117,-2.983,0,0
5.4692,0.73256,5.5449,1.0137,1,5.1901,-2.9099,0,0
5.4175,0.74647,5.4728,1.0099,1,5.2632,-2.8368,0,0
5.3659,0.76039,5.4007,1.006,1,5.3363,-2.7637,0,0
5.3142,0.7743,5.3287,1.0022,1,5.4094,-2.6906,0,0
5.2625,0.78821,5.2566,0.99842,1,5.4825,-2.6175,0,0
5.2109,0.80212,5.1846,0.99461,1,5.5556,-2.5444,0,0
5.1592,0.81603,5.1125,0.9908,1,5.6287,-2.4713,0,0
5.1058,0.83036,5.0387,0.98674,1,5.7018,-2.3982,0,0
5.0494,0.8454,4.9619,0.98226,1,5.7749,-2.3251,0,0
4.9931,0.86044,4.8851,0.97779,1,5.848,-2.252,0,0
4.9367,0.87548,4.8084,0.97332,1,5.9211,-2.1789,0,0
4.8803,0.89052,4.7316,0.96885,1,5.9942,-2.1058,0,0
4.824,0.90556,4.6548,0.96437,1,6.0673,-2.0327,0,0
4.7676,0.9206,4.578,0.9599,1,6.1404,-1.9596,0,0
4.7111,0.93567,4.5012,0.95542,1,6.2135,-1.8865,0,0
4.6512,0.95178,4.4226,0.95043,1,6.2866,-1.8134,0,0
4.5912,0.96789,4.344,0.94545,1,6.3597,-1.7403,0,0
4.5312,0.984,4.2654,0.94046,1,6.4328,-1.6672,0,0
4.4713,1.0001,4.1868,0.93548,1,6.5059,-1.5941,0,0
4.4113,1.0162,4.1083,0.9305,1,6.579,-1.521,0,0
4.3513,1.0323,4.0297,0.92551,1,6.6521,-1.4479,0,0
4.2914,1.0484,3.9511,0.92053,1,6.7252,-1.3748,0,0
4.2305,1.0652,3.8735,0.91526,1,6.7983,-1.3017,0,0
4.1692,1.0822,3.7964,0.90982,1,6.8714,-1.2286,0,0
4.1078,1.0993,3.7193,0.90438,1,6.9445,-1.1555,0,0
4.0465,1.1163,3.6422,0.89894,1,7.0176,-1.0824,0,0
3.9851,1.1334,3.5651,0.8935,1,7.0907,-1.0093,0,0
3.9238,1.1504,3.488,0.88806,1,7.1638,-0.9362,0,0
3.8624,1.1675,3.4109,0.88262,1,7.2369,-0.8631,0,0
3.8013,1.1847,3.3346,0.87712,1,7.31,-0.79,0,0
3.7408,1.2026,3.2621,0.87133,1,7.3831,-0.7169,0,0
3.6803,1.2205,3.1896,0.86555,1,7.4562,-0.6438,0,0
3.6198,1.2385,3.117,0.85976,1,7.5293,-0.5707,0,0
3.5594,1.2564,3.0445,0.85398,1,7.6024,-0.4976,0,0
3.4989,1.2743,2.9719,0.84819,1,7.6755,-0.4245,0,0
3.4384,1.2922,2.8994,0.84241,1,7.7486,-0.3514,0,0
3.3779,1.3101,2.8269,0.83663,1,7.8217,-0.2783,0,0
3.3188,1.3283,2.7585,0.8307,1,7.8948,-0.2052,0,0
3.2602,1.3467,2.6921,0.82471,1,7.9679,-0.1321,0,0
3.2016,1.3651,2.6258,0.81871,1,8.041,-0.059,0,0
3.143,1.3835,2.5594,0.81272,1,8.1141,0.0141,0,0
3.0844,1.4019,2.493,0.80673,1,8.1872,0.0872,0,0
3.0259,1.4203,2.4266,0.80073,1,8.2603,0.1603,0,0
2.9673,1.4387,2.3603,0.79474,1,8.3334,0.2334,0,0
2.9092,1.4573,2.2949,0.7887,1,8.4065,0.3065,0,0
2.8548,1.4774,2.2361,0.78237,1,8.4796,0.3796,0,0
2.8004,1.4974,2.1772,0.77604,1,8.5527,0.4527,0,0
2.746,1.5175,2.1184,0.76971,1,8.6258,0.5258,0,0
2.6915,1.5375,2.0596,0.76338,1,8.6989,0.5989,0,0
2.6371,1.5576,2.0008,0.75705,1,8.772,0.672,0,0
2.5827,1.5776,1.942,0.75072,1,8.8451,0.7451,0,0
2.5283,1.5977,1.8832,0.74439,1,8.9182,0.8182,0,0
2.471,1.6195,1.8232,0.73753,1,8.9913,0.8913,0,0
2.4112,1.6429,1.7623,0.73022,1,9.0644,0.9644,0,0
2.3514,1.6663,1.7013,0.72291,1,9.1375,1.0375,0,0
2.2917,1.6897,1.6404,0.7156,1,9.2106,1.1106,0,0
2.2364,1.7121,1.5857,0.70868,1,9.2837,1.1837,0,0
2.1831,1.734,1.5336,0.70192,1,9.3568,1.2568,0,0
2.1297,1.756,1.4816,0.69515,1,9.4299,1.3299,0,0
2.0763,1.778,1.4295,0.68839,1,9.503,1.403,0,0
2.0334,1.7984,1.388,0.68231,1,9.5761,1.4761,0,0
1.9918,1.8187,1.348,0.67632,1,9.6492,1.5492,0,0
1.9503,1.839,1.308,0.67033,1,9.7223,1.6223,0,0
1.9087,1.8592,1.2681,0.66434,1,9.7954,1.6954,0,0
1.868,1.8798,1.2303,0.65849,1,9.8685,1.7685,0,0
1.8279,1.9001,1.1932,0.65272,1,9.9416,1.8416,0,0
1.7943,1.917,1.1624,0.64778,1,10.015,1.9147,0,0
1.763,1.9329,1.1339,0.64316,1,10.088,1.9878,0,0
1.7436,1.9434,1.1163,0.64017,1,10.161,2.0609,0,0
1.7257,1.9519,1.1005,0.63771,1,10.234,2.134,0,0
1.7127,1.9534,1.0911,0.63704,1,10.307,2.2071,0,0
1.7045,1.9542,1.0848,0.63647,1,10.38,2.2802,0,0
1.7077,1.9534,1.0864,0.63619,1,10.453,2.3533,0,0
1.711,1.9525,1.088,0.6359,1,10.526,2.4264,0,0
1.7143,1.9517,1.0896,0.63561,1,10.599,2.4995,0,0
1.7196,1.949,1.0938,0.63607,1,10.673,2.5726,0,0
1.7279,1.9438,1.1018,0.63762,1,10.746,2.6457,0,0
1.7361,1.9386,1.1098,0.63916,1,10.819,2.7188,0,0
1.7444,1.9334,1.1178,0.6407,1,10.892,2.7919,0,0
1.7526,1.9282,1.1258,0.64225,1,10.965,2.865,0,0
1.7609,1.923,1.1338,0.64379,1,11.038,2.9381,0,0
1.7691,1.9178,1.1418,0.64534,1,11.111,3.0112,0,0
1.7774,1.9125,1.1498,0.64688,1,11.184,3.0843,0,0
1.7864,1.9073,1.1585,0.64843,1,11.257,3.1574,0,0
1.7961,1.9019,1.1676,0.64999,1,11.33,3.2305,0,0
1.8057,1.8966,1.1767,0.65155,1,11.404,3.3036,0,0
1.8154,1.8913,1.1858,0.65311,1,11.477,3.3767,0,0
1.825,1.886,1.195,0.65466,1,11.55,3.4498,0,0
1.8346,1.8807,1.2041,0.65622,1,11.623,3.5229,0,0
1.8443,1.8753,1.2132,0.65778,1,11.696,3.596,0,0
1.8539,1.87,1.2224,0.65934,1,11.769,3.6691,0,0
1.8636,1.866,1.2312,0.66062,1,11.842,3.7422,0,0
1.8734,1.8625,1.2399,0.66181,1,11.915,3.8153,0,0
1.8832,1.8591,1.2486,0.663,1,11.988,3.8884,0,0
1.893,1.8556,1.2573,0.66419,1,12.062,3.9615,0,0
1.8949,1.8546,1.2598,0.66481,1,12.135,4.0346,0,0
1.8947,1.8544,1.2605,0.66527,1,12.208,4.1077,0,0
1.8945,1.8542,1.2613,0.66573,1,12.281,4.1808,0,0
1.8943,1.854,1.262,0.66619,1,12.354,4.2539,0,0
1.887,1.858,1.255,0.66506,1,12.427,4.327,0,0
1.8781,1.863,1.2463,0.66358,1,12.5,4.4001,0,0
1.8691,1.8679,1.2376,0.6621,1,12.573,4.4732,0,0
1.8602,1.8729,1.2289,0.66062,1,12.646,4.5463,0,0
1.8404,1.8833,1.2107,0.65773,1,12.719,4.6194,0,0
1.8184,1.8947,1.1905,0.65455,1,12.792,4.6925,0,0
1.7964,1.9061,1.1703,0.65136,1,12.866,4.7656,0,0
1.7744,1.9175,1.1502,0.64818,1,12.939,4.8387,0,0
1.7454,1.9334,1.1245,0.64379,1,13.012,4.9118,0,0
1.7152,1.9501,1.0979,0.63916,1,13.085,4.9849,0,0
1.6849,1.9668,1.0712,0.63454,1,13.158,5.058,0,0
1.6547,1.9835,1.0446,0.62991,1,13.231,5.1311,0,0
1.6245,2.0002,1.0179,0.62529,1,13.304,5.2042,0,0
1.5942,2.0169,0.99126,0.62067,1,13.377,5.2773,0,0
1.564,2.0336,0.9646,0.61604,1,13.45,5.3504,0,0
1.5337,2.0503,0.93794,0.61142,1,13.524,5.4235,0,0
1.5042,2.0687,0.91329,0.60661,1,13.597,5.4966,0,0
1.4748,2.0876,0.88908,0.60175,1,13.67,5.5697,0,0
1.4454,2.1065,0.86487,0.5969,1,13.743,5.6428,0,0
1.416,2.1253,0.84066,0.59204,1,13.816,5.7159,0,0
1.3866,2.1442,0.81645,0.58719,1,13.889,5.789,0,0
1.3572,2.163,0.79224,0.58234,1,13.962,5.8621,0,0
1.3278,2.1819,0.76803,0.57748,1,14.035,5.9352,0,0
1.2985,2.2007,0.74382,0.57263,1,14.108,6.0083,0,0
1.2708,2.2214,0.7219,0.56747,1,14.181,6.0814,0,0
1.2437,2.2426,0.70078,0.5622,1,14.254,6.1545,0,0
1.2166,2.2638,0.67966,0.55694,1,14.328,6.2276,0,0
1.1895,2.285,0.65853,0.55167,1,14.401,6.3007,0,0
1.1624,2.3063,0.63741,0.54641,1,14.474,6.3738,0,0
1.1352,2.3275,0.61629,0.54114,1,14.547,6.4469,0,0
1.1081,2.3487,0.59516,0.53587,1,14.62,6.52,0,0
1.081,2.3699,0.57404,0.53061,1,14.693,6.5931,0,0
1.0567,2.3907,0.55603,0.52572,1,14.766,6.6662,0,0
1.0342,2.4113,0.54003,0.52108,1,14.839,6.7393,0,0
1.0118,2.4318,0.52404,0.51645,1,14.912,6.8124,0,0
0.98926,2.4523,0.50804,0.51181,1,14.986,6.8855,0,0
0.96677,2.4728,0.49204,0.50717,1,15.059,6.9586,0,0
0.94427,2.4933,0.47604,0.50253,1,15.132,7.0317,0,0
0.92178,2.5139,0.46004,0.49789,1,15.205,7.1048,0,0
0.89928,2.5344,0.44404,0.49326,1,15.278,7.1779,0,0
0.87862,2.5548,0.4297,0.48878,1,15.351,7.251,0,0
0.86058,2.5749,0.41773,0.48454,1,15.424,7.3241,0,0
0.84254,2.5951,0.40575,0.48031,1,15.497,7.3972,0,0
0.8245,2.6153,0.39378,0.47607,1,15.57,7.4703,0,0
0.80646,2.6355,0.38181,0.47183,1,15.643,7.5434,0,0
0.78843,2.6556,0.36984,0.46759,1,15.717,7.6165,0,0
0.77039,2.6758,0.35786,0.46336,1,15.79,7.6896,0,0
0.75235,2.696,0.34589,0.45912,1,15.863,7.7627,0,0
0.73493,2.7162,0.33442,0.45494,1,15.936,7.8358,0,0
0.72077,2.7365,0.32558,0.45109,1,16.009,7.9089,0,0
0.70661,2.7569,0.31674,0.44723,1,16.082,7.982,0,0
0.69245,2.7772,0.30791,0.44338,1,16.155,8.0551,0,0
0.67829,2.7976,0.29907,0.43952,1,16.228,8.1282,0,0
0.66413,2.8179,0.29023,0.43567,1,16.301,8.2013,0,0
0.64997,2.8382,0.28139,0.43182,1,16.374,8.2744,0,0
0.63581,2.8586,0.27255,0.42796,1,16.448,8.3475,0,0
0.62165,2.8789,0.26371,0.42411,1,16.521,8.4206,0,0
0.60807,2.9015,0.25576,0.42002,1,16.594,8.4937,0,0
0.59459,2.9245,0.24796,0.41589,1,16.667,8.5668,0,0
0.58112,2.9476,0.24016,0.41176,1,16.74,8.6399,0,0
0.56764,2.9706,0.23236,0.40764,1,16.813,8.713,0,0
0.55416,2.9936,0.22455,0.40351,1,16.886,8.7861,0,0
0.54068,3.0166,0.21675,0.39938,1,16.959,8.8592,0,0
0.5272,3.0396,0.20895,0.39526,1,17.032,8.9323,0,0
0.51372,3.0626,0.20115,0.39113,1,17.105,9.0054,0,0
0.50101,3.0853,0.19411,0.38728,1,17.179,9.0785,0,0
0.48909,3.1075,0.18784,0.38371,1,17.252,9.1516,0,0
0.47716,3.1297,0.18157,0.38015,1,17.325,9.2247,0,0
0.46523,3.1519,0.1753,0.37658,1,17.398,9.2978,0,0
0.45344,3.176,0.16912,0.37285,1,17.471,9.3709,0,0
0.44197,3.2046,0.16316,0.36875,1,17.544,9.444,0,0
0.4305,3.2331,0.15719,0.36465,1,17.617,9.5171,0,0
0.41903,3.2617,0.15122,0.36055,1,17.69,9.5902,0,0
0.40741,3.2906,0.14521,0.35641,1,17.763,9.6633,0,0
0.3942,3.3229,0.13876,0.35183,1,17.836,9.7364,0,0
0.38099,3.3553,0.1323,0.34725,1,17.91,9.8095,0,0
0.381,3.291,0.13447,0.35294,1,17.983,9.8826,0,0
0.38147,3.2235,0.13694,0.35899,1,18.056,9.9557,0,0
0.52774,2.4507,0.3126,0.52409,1,18.129,10.029,0,0
0.70023,1.5511,0.5194,0.7178,1,18.202,10.102,0,0
0.94824,0.98283,0.89156,0.89127,1,18.275,10.175,0,0
1.2244,0.53821,1.3254,1.0572,1,18.348,10.248,0,0
1.3673,0.31982,1.5713,1.1492,1,18.421,10.321,0,0
1.3684,0.27436,1.6089,1.1757,1,18.494,10.394,0,0
1.3765,0.16191,1.6494,1.1983,1,18.567,10.467,0,0
1.4429,0.039216,1.5357,1.0644,1,18.64,10.54,0,0
1.3612,0.15783,1.3793,1.0133,1,18.714,10.614,0,0
1.262,0.24291,1.2008,0.95149,1,18.787,10.687,0,0
1.216,0.2979,1.0981,0.90303,1,18.86,10.76,0,0
1.2222,0.32406,1.0791,0.88293,1,18.933,10.833,0,0
1.2399,0.34014,1.0929,0.88149,1,19.006,10.906,0,0
1.25,0.33554,1.1114,0.88911,1,19.079,10.979,0,0
1.2584,0.3026,1.1266,0.89529,1,19.152,11.052,0,0
1.2582,0.24473,1.1418,0.90743,1,19.225,11.125,0,0
1.2676,0.20466,1.1611,0.91598,1,19.298,11.198,0,0
1.2725,0.144,1.1768,0.9248,1,19.372,11.271,0,0
1.2782,0.075006,1.1918,0.93236,1,19.445,11.345,0,0
1.285,0.055848,1.2088,0.94065,1,19.518,11.418,0,0
1.2875,0.08234,1.2224,0.94943,1,19.591,11.491,0,0
1.2865,0.13189,1.231,0.95684,1,19.664,11.564,0,0
1.2847,0.18305,1.2367,0.96266,1,19.737,11.637,0,0
1.2858,0.22354,1.2423,0.96618,1,19.81,11.71,0,0
1.2833,0.26526,1.2358,0.96296,1,19.883,11.783,0,0
1.2702,0.31486,1.2149,0.95643,1,19.956,11.856,0,0
1.2511,0.36871,1.1854,0.94748,1,20.029,11.929,0,0
1.2298,0.41729,1.158,0.94161,1,20.103,12.002,0,0
1.2015,0.4673,1.1225,0.93421,1,20.176,12.076,0,0
1.1748,0.51733,1.0916,0.92924,1,20.249,12.149,0,0
1.1451,0.56726,1.0548,0.92112,1,20.322,12.222,0,0
1.1249,0.61718,1.0294,0.91503,1,20.395,12.295,0,0
1.1133,0.65059,1.0145,0.91128,1,20.468,12.368,0,0
1.1145,0.67296,1.0132,0.90914,1,20.541,12.441,0,0
1.128,0.67965,1.0266,0.91002,1,20.614,12.514,0,0
1.1493,0.67079,1.0515,0.91485,1,20.687,12.587,0,0
1.1761,0.66165,1.0847,0.92227,1,20.76,12.66,0,0
1.2052,0.65195,1.1222,0.93115,1,20.833,12.733,0,0
1.2353,0.6403,1.1622,0.94082,1,20.907,12.807,0,0
1.2667,0.62384,1.2057,0.95179,1,20.98,12.88,0,0
1.2975,0.61694,1.2494,0.96294,1,21.053,12.953,0,0
1.3212,0.61216,1.2814,0.96975,1,21.126,13.026,0,0
1.3444,0.60754,1.3125,0.97623,1,21.199,13.099,0,0
1.3664,0.58224,1.3471,0.98587,1,21.272,13.172,0,0
1.397,0.54982,1.3938,0.99763,1,21.345,13.245,0,0
1.4407,0.50762,1.4568,1.0112,1,21.418,13.318,0,0
1.5012,0.45849,1.5333,1.0214,1,21.491,13.391,0,0
1.5564,0.39454,1.6051,1.0313,1,21.564,13.464,0,0
1.5937,0.30893,1.6576,1.0401,1,21.638,13.538,0,0
1.6186,0.21703,1.6932,1.0461,1,21.711,13.611,0,0
1.6417,0.13018,1.7243,1.0503,1,21.784,13.684,0,0
1.642,0.053494,1.7229,1.0493,1,21.857,13.757,0,0
1.6512,0.040163,1.7358,1.0512,1,21.93,13.83,0,0
1.6505,0.099519,1.731,1.0487,1,22.003,13.903,0,0
1.6553,0.18424,1.7193,1.0387,1,22.076,13.976,0,0
1.7309,0.26418,1.7396,1.0056,1,22.149,14.049,0,0
1.7784,0.30347,1.7515,0.98497,1,22.222,14.122,0,0
1.7827,0.31312,1.7437,0.97831,1,22.295,14.195,0,0
1.7869,0.32277,1.7358,0.97165,1,22.369,14.269,0,0
1.7912,0.33242,1.728,0.96498,1,22.442,14.342,0,0
1.7955,0.34207,1.7201,0.95832,1,22.515,14.415,0,0
1.7998,0.35172,1.7122,0.95166,1,22.588,14.488,0,0
1.804,0.36137,1.7044,0.94499,1,22.661,14.561,0,0
1.8083,0.37102,1.6965,0.93833,1,22.734,14.634,0,0
1.8126,0.38067,1.6886,0.93167,1,22.807,14.707,0,0
1.8174,0.3896,1.6855,0.92746,1,22.88,14.78,0,0
1.8226,0.39812,1.685,0.92459,1,22.953,14.853,0,0
1.8278,0.40664,1.6845,0.92173,1,23.027,14.926,0,0
1.8329,0.41517,1.6839,0.91887,1,23.1,15,0,0
1.8381,0.42369,1.6834,0.91601,1,23.173,15.073,0,0
1.8432,0.43221,1.6829,0.91315,1,23.246,15.146,0,0
1.8484,0.44074,1.6823,0.91029,1,23.319,15.219,0,0
1.8535,0.44926,1.6818,0.90743,1,23.392,15.292,0,0
1.8587,0.45778,1.6813,0.90457,1,23.465,15.365,0,0
1.8622,0.4667,1.6819,0.90318,1,23.538,15.438,0,0
1.865,0.47579,1.6831,0.90244,1,23.611,15.511,0,0
1.8679,0.48488,1.6842,0.90171,1,23.684,15.584,0,0
1.8707,0.49397,1.6854,0.90097,1,23.757,15.657,0,0
1.8735,0.50306,1.6865,0.90023,1,23.831,15.731,0,0
1.8763,0.51215,1.6877,0.8995,1,23.904,15.804,0,0
1.8791,0.52125,1.6888,0.89876,1,23.977,15.877,0,0
1.8819,0.53034,1.69,0.89802,1,24.05,15.95,0,0
1.8848,0.53943,1.6912,0.89728,1,24.123,16.023,0,0
1.8859,0.54904,1.6907,0.89649,1,24.196,16.096,0,0
1.8863,0.55889,1.6895,0.89568,1,24.269,16.169,0,0
1.8866,0.56874,1.6883,0.89487,1,24.342,16.242,0,0
1.887,0.57859,1.6871,0.89405,1,24.415,16.315,0,0
1.8874,0.58844,1.6859,0.89324,1,24.489,16.389,0,0
1.8877,0.59829,1.6847,0.89242,1,24.562,16.462,0,0
1.8881,0.60814,1.6835,0.89161,1,24.635,16.535,0,0
1.8885,0.61799,1.6823,0.8908,1,24.708,16.608,0,0
1.8889,0.62784,1.681,0.88998,1,24.781,16.681,0,0
1.8874,0.63803,1.6778,0.88894,1,24.854,16.754,0,0
1.8848,0.64842,1.6733,0.88776,1,24.927,16.827,0,0
1.8822,0.65882,1.6687,0.88657,1,25,16.9,0,0
1.8795,0.66922,1.6642,0.88539,1,25.073,16.973,0,0
1.8769,0.67962,1.6597,0.8842,1,25.146,17.046,0,0
1.8743,0.69002,1.6551,0.88302,1,25.219,17.119,0,0
1.8717,0.70042,1.6506,0.88184,1,25.293,17.193,0,0
1.8691,0.71082,1.646,0.88065,1,25.366,17.266,0,0
1.8665,0.72121,1.6415,0.87947,1,25.439,17.339,0,0
1.8617,0.73184,1.6346,0.87795,1,25.512,17.412,0,0
1.8547,0.7427,1.625,0.87606,1,25.585,17.485,0,0
1.8476,0.75357,1.6154,0.87417,1,25.658,17.558,0,0
1.8406,0.76444,1.6057,0.87228,1,25.731,17.631,0,0
1.8335,0.77531,1.5961,0.87039,1,25.804,17.704,0,0
1.8264,0.78618,1.5865,0.86851,1,25.877,17.777,0,0
1.8194,0.79705,1.5769,0.86662,1,25.951,17.851,0,0
1.8123,0.80791,1.5673,0.86473,1,26.024,17.924,0,0
1.8053,0.81878,1.5577,0.86284,1,26.097,17.997,0,0
1.797,0.82988,1.5468,0.86073,1,26.17,18.07,0,0
1.7855,0.84157,1.5323,0.85804,1,26.243,18.143,0,0
1.774,0.85326,1.5179,0.85535,1,26.316,18.216,0,0
1.7625,0.86494,1.5035,0.85267,1,26.389,18.289,0,0
1.7511,0.87663,1.489,0.84998,1,26.462,18.362,0,0
1.7396,0.88832,1.4746,0.8473,1,26.535,18.435,0,0
1.7281,0.90001,1.4602,0.84461,1,26.608,18.508,0,0
1.7166,0.91169,1.4457,0.84193,1,26.681,18.581,0,0
1.7052,0.92338,1.4313,0.83924,1,26.755,18.655,0,0
1.6936,0.93508,1.4168,0.83654,1,26.828,18.728,0,0
1.6793,0.94722,1.3998,0.83333,1,26.901,18.801,0,0
1.6649,0.95937,1.3827,0.83012,1,26.974,18.874,0,0
1.6505,0.97151,1.3657,0.8269,1,27.047,18.947,0,0
1.6361,0.98366,1.3487,0.82369,1,27.12,19.02,0,0
1.6218,0.99581,1.3316,0.82048,1,27.193,19.093,0,0
1.6074,1.008,1.3146,0.81726,1,27.266,19.166,0,0
1.593,1.0201,1.2975,0.81405,1,27.339,19.239,0,0
1.5787,1.0322,1.2805,0.81084,1,27.413,19.312,0,0
1.5643,1.0444,1.2635,0.80762,1,27.486,19.386,0,0
1.5493,1.0565,1.2465,0.8043,1,27.559,19.459,0,0
1.5342,1.0685,1.2295,0.80094,1,27.632,19.532,0,0
1.519,1.0805,1.2124,0.79757,1,27.705,19.605,0,0
1.5038,1.0926,1.1954,0.79421,1,27.778,19.678,0,0
1.4887,1.1046,1.1784,0.79084,1,27.851,19.751,0,0
1.4735,1.1167,1.1614,0.78748,1,27.924,19.824,0,0
1.4583,1.1287,1.1444,0.78411,1,27.997,19.897,0,0
1.4432,1.1407,1.1274,0.78074,1,28.07,19.97,0,0
1.428,1.1528,1.1104,0.77738,1,28.143,20.043,0,0
1.413,1.1646,1.0939,0.77405,1,28.217,20.117,0,0
1.3984,1.1761,1.0784,0.77079,1,28.29,20.19,0,0
1.3838,1.1876,1.0629,0.76754,1,28.363,20.263,0,0
1.3691,1.199,1.0474,0.76428,1,28.436,20.336,0,0
1.3545,1.2105,1.0319,0.76103,1,28.509,20.409,0,0
1.3399,1.222,1.0164,0.75777,1,28.582,20.482,0,0
1.3253,1.2334,1.0009,0.75452,1,28.655,20.555,0,0
1.3107,1.2449,0.9854,0.75126,1,28.728,20.628,0,0
1.2961,1.2564,0.96991,0.74801,1,28.801,20.701,0,0
1.2814,1.2678,0.95442,0.74475,1,28.875,20.774,0,0
1.2682,1.2784,0.94104,0.74181,1,28.948,20.848,0,0
1.2551,1.2889,0.92797,0.73891,1,29.021,20.921,0,0
1.2421,1.2993,0.9149,0.73601,1,29.094,20.994,0,0
1.229,1.3098,0.90183,0.73311,1,29.167,21.067,0,0
1.216,1.3203,0.88876,0.73021,1,29.24,21.14,0,0
1.2029,1.3307,0.87569,0.72731,1,29.313,21.213,0,0
1.1898,1.3412,0.86262,0.72441,1,29.386,21.286,0,0
1.1768,1.3517,0.84955,0.72151,1,29.459,21.359,0,0
