"Density","Mach","Pressure","Temperature","vtkValidPointMask","arc_length","Points:0","Points:1","Points:2"
0.41383,3.2751,0.14824,0.3577,1,0,10,0,0
0.41267,3.2767,0.14771,0.35742,1,0.016,10,0.016,0
0.41151,3.2784,0.14719,0.35714,1,0.032,10,0.032,0
0.41035,3.2801,0.14666,0.35686,1,0.048,10,0.048,0
0.40918,3.2818,0.14613,0.35657,1,0.064,10,0.064,0
0.40802,3.2835,0.1456,0.35629,1,0.08,10,0.08,0
0.40686,3.2851,0.14507,0.35601,1,0.096,10,0.096,0
0.4057,3.2868,0.14454,0.35573,1,0.112,10,0.112,0
0.40454,3.2885,0.14402,0.35545,1,0.128,10,0.128,0
0.40338,3.2902,0.14349,0.35517,1,0.144,10,0.144,0
0.40222,3.2919,0.14296,0.35489,1,0.16,10,0.16,0
0.40106,3.2936,0.14243,0.35461,1,0.176,10,0.176,0
0.3999,3.2952,0.1419,0.35433,1,0.192,10,0.192,0
0.39874,3.2969,0.14137,0.35405,1,0.208,10,0.208,0
0.39757,3.2986,0.14085,0.35377,1,0.224,10,0.224,0
0.39641,3.3003,0.14032,0.35349,1,0.24,10,0.24,0
0.39525,3.302,0.13979,0.35321,1,0.256,10,0.256,0
0.39409,3.3036,0.13926,0.35293,1,0.272,10,0.272,0
0.39293,3.3053,0.13873,0.35265,1,0.288,10,0.288,0
0.39177,3.307,0.13821,0.35237,1,0.304,10,0.304,0
0.39061,3.3087,0.13768,0.35209,1,0.32,10,0.32,0
0.38945,3.3104,0.13715,0.35181,1,0.336,10,0.336,0
0.38829,3.3121,0.13662,0.35153,1,0.352,10,0.352,0
0.38712,3.3137,0.13609,0.35125,1,0.368,10,0.368,0
0.38596,3.3154,0.13556,0.35097,1,0.384,10,0.384,0
0.3848,3.3171,0.13504,0.35069,1,0.4,10,0.4,0
0.38364,3.3188,0.13451,0.35041,1,0.416,10,0.416,0
0.38248,3.3205,0.13398,0.35013,1,0.432,10,0.432,0
0.38132,3.3221,0.13345,0.34985,1,0.448,10,0.448,0
0.38016,3.3238,0.13292,0.34957,1,0.464,10,0.464,0
0.379,3.3255,0.13239,0.34929,1,0.48,10,0.48,0
0.378,3.3271,0.13193,0.34903,1,0.496,10,0.496,0
0.37752,3.3286,0.1317,0.34884,1,0.512,10,0.512,0
0.37704,3.33,0.13147,0.34865,1,0.528,10,0.528,0
0.37656,3.3314,0.13123,0.34847,1,0.544,10,0.544,0
0.37609,3.3329,0.131,0.34828,1,0.56,10,0.56,0
0.37561,3.3343,0.13076,0.34809,1,0.576,10,0.576,0
0.37513,3.3357,0.13053,0.3479,1,0.592,10,0.592,0
0.37465,3.3372,0.1303,0.34772,1,0.608,10,0.608,0
0.37417,3.3386,0.13006,0.34753,1,0.624,10,0.624,0
0.37369,3.34,0.12983,0.34734,1,0.64,10,0.64,0
0.37322,3.3415,0.12959,0.34715,1,0.656,10,0.656,0
0.37274,3.3429,0.12936,0.34697,1,0.672,10,0.672,0
0.37226,3.3443,0.12913,0.34678,1,0.688,10,0.688,0
0.37178,3.3458,0.12889,0.34659,1,0.704,10,0.704,0
0.3713,3.3472,0.12866,0.3464,1,0.72,10,0.72,0
0.37082,3.3486,0.12842,0.34622,1,0.736,10,0.736,0
0.37035,3.3501,0.12819,0.34603,1,0.752,10,0.752,0
0.36987,3.3515,0.12796,0.34584,1,0.768,10,0.768,0
0.36939,3.3529,0.12772,0.34565,1,0.784,10,0.784,0
0.36891,3.3544,0.12749,0.34547,1,0.8,10,0.8,0
0.36843,3.3558,0.12725,0.34528,1,0.816,10,0.816,0
0.36795,3.3572,0.12702,0.34509,1,0.832,10,0.832,0
0.36748,3.3587,0.12679,0.3449,1,0.848,10,0.848,0
0.367,3.3601,0.12655,0.34472,1,0.864,10,0.864,0
0.3666,3.3615,0.12635,0.34453,1,0.88,10,0.88,0
0.36624,3.3629,0.12616,0.34435,1,0.896,10,0.896,0
0.36589,3.3642,0.12597,0.34417,1,0.912,10,0.912,0
0.36554,3.3656,0.12578,0.34399,1,0.928,10,0.928,0
0.36518,3.3669,0.12559,0.34381,1,0.944,10,0.944,0
0.36483,3.3682,0.1254,0.34363,1,0.96,10,0.96,0
0.36448,3.3696,0.12521,0.34345,1,0.976,10,0.976,0
0.36412,3.3709,0.12502,0.34327,1,0.992,10,0.992,0
0.36377,3.3723,0.12483,0.34309,1,1.008,10,1.008,0
0.36342,3.3736,0.12464,0.34291,1,1.024,10,1.024,0
0.36306,3.375,0.12445,0.34273,1,1.04,10,1.04,0
0.36271,3.3763,0.12426,0.34255,1,1.056,10,1.056,0
0.36235,3.3777,0.12406,0.34237,1,1.072,10,1.072,0
0.36199,3.379,0.12387,0.3422,1,1.088,10,1.088,0
0.36167,3.3802,0.12371,0.34203,1,1.104,10,1.104,0
0.36135,3.3815,0.12354,0.34186,1,1.12,10,1.12,0
0.36103,3.3827,0.12337,0.34169,1,1.136,10,1.136,0
0.36071,3.384,0.12321,0.34152,1,1.152,10,1.152,0
0.36038,3.3853,0.12304,0.34134,1,1.168,10,1.168,0
0.36006,3.3865,0.12287,0.34117,1,1.184,10,1.184,0
0.35974,3.3878,0.1227,0.341,1,1.2,10,1.2,0
0.35942,3.389,0.12254,0.34083,1,1.216,10,1.216,0
0.3591,3.3903,0.12237,0.34066,1,1.232,10,1.232,0
0.35878,3.3916,0.1222,0.34049,1,1.248,10,1.248,0
0.35846,3.3928,0.12204,0.34032,1,1.264,10,1.264,0
0.35812,3.394,0.12186,0.34015,1,1.28,10,1.28,0
0.35777,3.3952,0.12167,0.33998,1,1.296,10,1.296,0
0.35743,3.3963,0.12149,0.33981,1,1.312,10,1.312,0
0.35708,3.3975,0.12131,0.33964,1,1.328,10,1.328,0
0.35674,3.3987,0.12113,0.33947,1,1.344,10,1.344,0
0.3564,3.3999,0.12095,0.3393,1,1.36,10,1.36,0
0.35605,3.401,0.12077,0.33914,1,1.376,10,1.376,0
0.35571,3.4022,0.12059,0.33897,1,1.392,10,1.392,0
0.35536,3.4034,0.12041,0.3388,1,1.408,10,1.408,0
0.35502,3.4045,0.12023,0.33863,1,1.424,10,1.424,0
0.35474,3.4054,0.12009,0.33851,1,1.44,10,1.44,0
0.35452,3.4061,0.11997,0.3384,1,1.456,10,1.456,0
0.3543,3.4068,0.11986,0.3383,1,1.472,10,1.472,0
0.35409,3.4075,0.11976,0.3382,1,1.488,10,1.488,0
0.35388,3.4082,0.11965,0.3381,1,1.504,10,1.504,0
0.35367,3.4088,0.11955,0.338,1,1.52,10,1.52,0
0.35346,3.4095,0.11944,0.3379,1,1.536,10,1.536,0
0.35325,3.4102,0.11934,0.3378,1,1.552,10,1.552,0
0.35304,3.4109,0.11923,0.3377,1,1.568,10,1.568,0
0.35293,3.4112,0.11917,0.33765,1,1.584,10,1.584,0
0.35283,3.4115,0.11913,0.3376,1,1.6,10,1.6,0
0.35274,3.4118,0.11908,0.33756,1,1.616,10,1.616,0
0.35267,3.412,0.11904,0.33753,1,1.632,10,1.632,0
0.35261,3.4121,0.11901,0.3375,1,1.648,10,1.648,0
0.35254,3.4123,0.11897,0.33746,1,1.664,10,1.664,0
0.35258,3.4122,0.11899,0.33748,1,1.68,10,1.68,0
0.35262,3.412,0.11901,0.33749,1,1.696,10,1.696,0
0.35267,3.4119,0.11903,0.33751,1,1.712,10,1.712,0
0.35274,3.4117,0.11906,0.33753,1,1.728,10,1.728,0
0.35289,3.4112,0.11913,0.33759,1,1.744,10,1.744,0
0.35305,3.4107,0.11921,0.33765,1,1.76,10,1.76,0
0.35321,3.4102,0.11929,0.33771,1,1.776,10,1.776,0
0.35343,3.4095,0.11939,0.3378,1,1.792,10,1.792,0
0.35365,3.4088,0.11949,0.33789,1,1.808,10,1.808,0
0.35387,3.4082,0.1196,0.33798,1,1.824,10,1.824,0
0.35401,3.4078,0.11967,0.33805,1,1.84,10,1.84,0
0.35403,3.4079,0.11968,0.33804,1,1.856,10,1.856,0
0.35392,3.4091,0.11959,0.33791,1,1.872,10,1.872,0
0.355,3.4064,0.12005,0.33818,1,1.888,10,1.888,0
0.39804,3.2667,0.14161,0.35521,1,1.904,10,1.904,0
0.65889,2.6526,0.30579,0.46229,1,1.92,10,1.92,0
0.82409,2.4466,0.42112,0.511,1,1.936,10,1.936,0
0.84767,2.4318,0.43635,0.51476,1,1.952,10,1.952,0
0.85856,2.4283,0.44258,0.51549,1,1.968,10,1.968,0
0.86848,2.4242,0.44845,0.51636,1,1.984,10,1.984,0
0.87837,2.4196,0.45447,0.51738,1,2,10,2,0
0.88835,2.4146,0.46064,0.51852,1,2.016,10,2.016,0
0.89836,2.4099,0.4668,0.51961,1,2.032,10,2.032,0
0.90841,2.4056,0.47296,0.52063,1,2.048,10,2.048,0
0.91846,2.4012,0.47912,0.52165,1,2.064,10,2.064,0
0.92828,2.3973,0.48514,0.52259,1,2.08,10,2.08,0
0.93807,2.3934,0.49113,0.52351,1,2.096,10,2.096,0
0.94786,2.3896,0.49712,0.52443,1,2.112,10,2.112,0
0.9577,2.3856,0.50315,0.52537,1,2.128,10,2.128,0
0.96714,2.3817,0.50902,0.5263,1,2.144,10,2.144,0
0.97644,2.378,0.51481,0.5272,1,2.16,10,2.16,0
0.98574,2.3742,0.52061,0.52811,1,2.176,10,2.176,0
0.99504,2.3704,0.5264,0.52901,1,2.192,10,2.192,0
1.0038,2.3663,0.53205,0.52999,1,2.208,10,2.208,0
1.0126,2.3622,0.5377,0.53096,1,2.224,10,2.224,0
1.0214,2.3582,0.54335,0.53193,1,2.24,10,2.24,0
1.0301,2.3541,0.549,0.5329,1,2.256,10,2.256,0
1.0389,2.35,0.55464,0.53387,1,2.272,10,2.272,0
1.0471,2.3459,0.56007,0.53485,1,2.288,10,2.288,0
1.0551,2.3416,0.56549,0.53587,1,2.304,10,2.304,0
1.0632,2.3372,0.57093,0.5369,1,2.32,10,2.32,0
1.0713,2.3329,0.57637,0.53793,1,2.336,10,2.336,0
1.0793,2.3285,0.5818,0.53896,1,2.352,10,2.352,0
1.0874,2.3242,0.58724,0.53998,1,2.368,10,2.368,0
1.0955,2.3199,0.59267,0.54101,1,2.384,10,2.384,0
1.103,2.3154,0.59793,0.54206,1,2.4,10,2.4,0
1.1105,2.311,0.60318,0.5431,1,2.416,10,2.416,0
1.118,2.3066,0.60844,0.54414,1,2.432,10,2.432,0
1.1255,2.3022,0.61369,0.54519,1,2.448,10,2.448,0
1.133,2.2978,0.61894,0.54623,1,2.464,10,2.464,0
1.1405,2.2934,0.62419,0.54727,1,2.48,10,2.48,0
1.1479,2.289,0.62939,0.54829,1,2.496,10,2.496,0
1.1549,2.2848,0.63443,0.54931,1,2.512,10,2.512,0
1.1618,2.2806,0.63946,0.55033,1,2.528,10,2.528,0
1.1688,2.2763,0.64455,0.55136,1,2.544,10,2.544,0
1.1758,2.2721,0.64963,0.55239,1,2.56,10,2.56,0
1.1828,2.2678,0.65472,0.55342,1,2.576,10,2.576,0
1.1898,2.2635,0.6598,0.55446,1,2.592,10,2.592,0
1.1968,2.2592,0.66489,0.55549,1,2.608,10,2.608,0
1.2038,2.255,0.66997,0.55652,1,2.624,10,2.624,0
1.2105,2.2508,0.67496,0.55754,1,2.64,10,2.64,0
1.2171,2.2467,0.67988,0.55856,1,2.656,10,2.656,0
1.2236,2.2427,0.68481,0.55958,1,2.672,10,2.672,0
1.2302,2.2386,0.68973,0.56059,1,2.688,10,2.688,0
1.2367,2.2345,0.69466,0.56161,1,2.704,10,2.704,0
1.2433,2.2304,0.69958,0.56262,1,2.72,10,2.72,0
1.2497,2.2264,0.70445,0.56362,1,2.736,10,2.736,0
1.2561,2.2225,0.70927,0.56462,1,2.752,10,2.752,0
1.2625,2.2185,0.71409,0.56561,1,2.768,10,2.768,0
1.2685,2.2147,0.71876,0.56657,1,2.784,10,2.784,0
1.2745,2.211,0.72341,0.56753,1,2.8,10,2.8,0
1.2805,2.2072,0.72805,0.56849,1,2.816,10,2.816,0
1.2864,2.2035,0.7327,0.56944,1,2.832,10,2.832,0
1.2925,2.1997,0.7374,0.57041,1,2.848,10,2.848,0
1.2986,2.1959,0.74211,0.57139,1,2.864,10,2.864,0
1.3046,2.1921,0.74682,0.57236,1,2.88,10,2.88,0
1.3107,2.1883,0.75153,0.57333,1,2.896,10,2.896,0
1.3167,2.1845,0.75624,0.5743,1,2.912,10,2.912,0
1.3226,2.1808,0.76088,0.57527,1,2.928,10,2.928,0
1.3284,2.1771,0.76551,0.57623,1,2.944,10,2.944,0
1.3341,2.1735,0.77007,0.57717,1,2.96,10,2.96,0
1.3396,2.1701,0.77448,0.57807,1,2.976,10,2.976,0
1.3451,2.1666,0.77889,0.57898,1,2.992,10,2.992,0
1.3506,2.1632,0.7833,0.57988,1,3.008,10,3.008,0
1.3561,2.1598,0.78771,0.58078,1,3.024,10,3.024,0
1.3616,2.1563,0.79212,0.58169,1,3.04,10,3.04,0
1.3672,2.1529,0.79653,0.58259,1,3.056,10,3.056,0
1.3726,2.1496,0.80091,0.58348,1,3.072,10,3.072,0
1.378,2.1463,0.80526,0.58435,1,3.088,10,3.088,0
1.3833,2.143,0.80962,0.58523,1,3.104,10,3.104,0
1.3887,2.1397,0.81398,0.58611,1,3.12,10,3.12,0
1.3941,2.1364,0.81834,0.58698,1,3.136,10,3.136,0
1.3993,2.1333,0.82258,0.58782,1,3.152,10,3.152,0
1.4044,2.1304,0.82665,0.5886,1,3.168,10,3.168,0
1.4094,2.1275,0.83071,0.58938,1,3.184,10,3.184,0
1.4144,2.1246,0.83477,0.59016,1,3.2,10,3.2,0
1.4194,2.1218,0.8388,0.59092,1,3.216,10,3.216,0
1.4244,2.119,0.84282,0.59168,1,3.232,10,3.232,0
1.4293,2.1161,0.84684,0.59244,1,3.248,10,3.248,0
1.4343,2.1133,0.85087,0.5932,1,3.264,10,3.264,0
1.4393,2.1105,0.85489,0.59396,1,3.28,10,3.28,0
1.4439,2.108,0.85862,0.59463,1,3.296,10,3.296,0
1.4483,2.1057,0.86221,0.59528,1,3.312,10,3.312,0
1.4528,2.1034,0.86581,0.59592,1,3.328,10,3.328,0
1.4572,2.101,0.8694,0.59656,1,3.344,10,3.344,0
1.4617,2.0987,0.873,0.5972,1,3.36,10,3.36,0
1.4661,2.0963,0.8766,0.59784,1,3.376,10,3.376,0
1.4706,2.094,0.88019,0.59848,1,3.392,10,3.392,0
1.475,2.0917,0.88379,0.59913,1,3.408,10,3.408,0
1.4794,2.0894,0.88735,0.59976,1,3.424,10,3.424,0
1.4836,2.0872,0.89075,0.60037,1,3.44,10,3.44,0
1.4878,2.085,0.89415,0.60097,1,3.456,10,3.456,0
1.4919,2.0828,0.89746,0.60157,1,3.472,10,3.472,0
1.4954,2.0809,0.90038,0.6021,1,3.488,10,3.488,0
1.4989,2.079,0.9033,0.60263,1,3.504,10,3.504,0
1.5023,2.0772,0.90617,0.60315,1,3.52,10,3.52,0
1.5057,2.0753,0.90901,0.60366,1,3.536,10,3.536,0
1.5092,2.0735,0.91185,0.60417,1,3.552,10,3.552,0
1.5126,2.0716,0.91468,0.60469,1,3.568,10,3.568,0
1.516,2.0698,0.91752,0.6052,1,3.584,10,3.584,0
1.5194,2.068,0.92036,0.60571,1,3.6,10,3.6,0
1.5228,2.0661,0.9232,0.60622,1,3.616,10,3.616,0
1.5262,2.0643,0.92604,0.60673,1,3.632,10,3.632,0
1.5291,2.0626,0.92852,0.60722,1,3.648,10,3.648,0
1.5317,2.0609,0.93085,0.6077,1,3.664,10,3.664,0
1.5343,2.0592,0.93318,0.60818,1,3.68,10,3.68,0
1.5369,2.0576,0.93551,0.60866,1,3.696,10,3.696,0
1.5396,2.0559,0.93784,0.60914,1,3.712,10,3.712,0
1.5422,2.0542,0.94017,0.60962,1,3.728,10,3.728,0
1.5448,2.0525,0.9425,0.6101,1,3.744,10,3.744,0
1.5474,2.0509,0.94482,0.61058,1,3.76,10,3.76,0
1.5492,2.0493,0.94661,0.61101,1,3.776,10,3.776,0
1.5509,2.0477,0.9483,0.61144,1,3.792,10,3.792,0
1.5526,2.0461,0.94999,0.61187,1,3.808,10,3.808,0
1.5542,2.0445,0.95168,0.61229,1,3.824,10,3.824,0
1.5559,2.0429,0.95337,0.61272,1,3.84,10,3.84,0
1.5576,2.0413,0.95507,0.61315,1,3.856,10,3.856,0
1.5593,2.0397,0.95676,0.61357,1,3.872,10,3.872,0
1.5607,2.0382,0.95825,0.61398,1,3.888,10,3.888,0
1.5619,2.0367,0.95961,0.61437,1,3.904,10,3.904,0
1.5631,2.0352,0.96097,0.61476,1,3.92,10,3.92,0
1.5643,2.0337,0.96233,0.61515,1,3.936,10,3.936,0
1.5656,2.0322,0.96369,0.61554,1,3.952,10,3.952,0
1.5668,2.0307,0.96505,0.61594,1,3.968,10,3.968,0
1.568,2.0292,0.96641,0.61633,1,3.984,10,3.984,0
1.5688,2.0275,0.96762,0.61677,1,4,10,4,0
1.5696,2.0257,0.9688,0.61723,1,4.016,10,4.016,0
1.5704,2.0239,0.96998,0.61768,1,4.032,10,4.032,0
1.5706,2.022,0.97092,0.61818,1,4.048,10,4.048,0
1.5708,2.0201,0.97185,0.61868,1,4.064,10,4.064,0
1.5711,2.0181,0.97278,0.61918,1,4.08,10,4.08,0
1.5713,2.0162,0.97371,0.61969,1,4.096,10,4.096,0
1.5715,2.0143,0.97464,0.62019,1,4.112,10,4.112,0
1.5717,2.0124,0.97557,0.62069,1,4.128,10,4.128,0
1.5714,2.01,0.9763,0.6213,1,4.144,10,4.144,0
1.5706,2.0073,0.97694,0.62203,1,4.16,10,4.16,0
1.5698,2.0046,0.97757,0.62276,1,4.176,10,4.176,0
1.5689,2.0018,0.97821,0.62349,1,4.192,10,4.192,0
1.5681,1.9991,0.97885,0.62422,1,4.208,10,4.208,0
1.567,1.996,0.97944,0.62503,1,4.224,10,4.224,0
1.5641,1.9908,0.97974,0.62641,1,4.24,10,4.24,0
1.561,1.9854,0.98002,0.62784,1,4.256,10,4.256,0
1.5579,1.98,0.98031,0.62926,1,4.272,10,4.272,0
1.5526,1.9714,0.98055,0.63156,1,4.288,10,4.288,0
1.5466,1.9615,0.98078,0.63416,1,4.304,10,4.304,0
1.54,1.9507,0.981,0.63702,1,4.32,10,4.32,0
1.53,1.9345,0.98121,0.64133,1,4.336,10,4.336,0
1.519,1.9163,0.98145,0.64614,1,4.352,10,4.352,0
1.5045,1.892,0.9818,0.65264,1,4.368,10,4.368,0
1.4872,1.8627,0.98217,0.66046,1,4.384,10,4.384,0
1.4637,1.8214,0.98301,0.67162,1,4.4,10,4.4,0
1.4269,1.7567,0.98329,0.68915,1,4.416,10,4.416,0
1.3708,1.6525,0.98391,0.71785,1,4.432,10,4.432,0
1.2859,1.4786,0.98485,0.76635,1,4.448,10,4.448,0
1.1853,1.2462,0.98426,0.83051,1,4.464,10,4.464,0
1.1081,1.0233,0.98444,0.88861,1,4.48,10,4.48,0
1.0665,0.87285,0.98438,0.9233,1,4.496,10,4.496,0
1.0391,0.75947,0.98392,0.94694,1,4.512,10,4.512,0
1.023,0.6782,0.98399,0.96192,1,4.528,10,4.528,0
1.015,0.62602,0.98468,0.97022,1,4.544,10,4.544,0
1.008,0.57731,0.98544,0.97771,1,4.56,10,4.56,0
1.0019,0.5338,0.98583,0.98398,1,4.576,10,4.576,0
0.99852,0.50399,0.98561,0.98711,1,4.592,10,4.592,0
0.99514,0.47419,0.9854,0.99025,1,4.608,10,4.608,0
0.99176,0.44438,0.98518,0.99339,1,4.624,10,4.624,0
0.98914,0.41831,0.9851,0.99592,1,4.64,10,4.64,0
0.98819,0.40047,0.98535,0.99713,1,4.656,10,4.656,0
0.98725,0.38263,0.9856,0.99835,1,4.672,10,4.672,0
0.9863,0.36479,0.98585,0.99956,1,4.688,10,4.688,0
0.98535,0.34695,0.9861,1.0008,1,4.704,10,4.704,0
0.98435,0.32924,0.98624,1.0019,1,4.72,10,4.72,0
0.98342,0.31259,0.98631,1.0029,1,4.736,10,4.736,0
0.98324,0.30357,0.98629,1.0031,1,4.752,10,4.752,0
0.98306,0.29456,0.98626,1.0033,1,4.768,10,4.768,0
0.98265,0.28504,0.98596,1.0034,1,4.784,10,4.784,0
0.9822,0.27545,0.98561,1.0035,1,4.8,10,4.8,0
0.98175,0.26585,0.98527,1.0036,1,4.816,10,4.816,0
0.9813,0.25626,0.98493,1.0037,1,4.832,10,4.832,0
0.98086,0.24667,0.98458,1.0038,1,4.848,10,4.848,0
0.98041,0.23708,0.98424,1.0039,1,4.864,10,4.864,0
0.97996,0.22749,0.98389,1.004,1,4.88,10,4.88,0
0.97966,0.21897,0.98366,1.0041,1,4.896,10,4.896,0
0.97968,0.21277,0.98368,1.0041,1,4.912,10,4.912,0
0.9797,0.20658,0.9837,1.0041,1,4.928,10,4.928,0
0.97972,0.20038,0.98372,1.0041,1,4.944,10,4.944,0
0.97974,0.19462,0.98372,1.0041,1,4.96,10,4.96,0
0.9798,0.19088,0.98368,1.004,1,4.976,10,4.976,0
0.97985,0.18714,0.98365,1.0039,1,4.992,10,4.992,0
0.9799,0.1834,0.98361,1.0038,1,5.008,10,5.008,0
0.97996,0.17966,0.98357,1.0037,1,5.024,10,5.024,0
0.98001,0.17592,0.98353,1.0036,1,5.04,10,5.04,0
0.98007,0.17218,0.98349,1.0035,1,5.056,10,5.056,0
0.98012,0.16844,0.98345,1.0034,1,5.072,10,5.072,0
0.98017,0.16471,0.98341,1.0033,1,5.088,10,5.088,0
0.98023,0.16097,0.98337,1.0032,1,5.104,10,5.104,0
0.98028,0.15723,0.98334,1.0031,1,5.12,10,5.12,0
0.98034,0.15349,0.9833,1.003,1,5.136,10,5.136,0
0.98039,0.14975,0.98326,1.0029,1,5.152,10,5.152,0
0.98044,0.14601,0.98322,1.0028,1,5.168,10,5.168,0
0.9805,0.14227,0.98318,1.0027,1,5.184,10,5.184,0
0.98055,0.13854,0.98314,1.0026,1,5.2,10,5.2,0
0.98061,0.1348,0.9831,1.0025,1,5.216,10,5.216,0
0.98066,0.13106,0.98306,1.0025,1,5.232,10,5.232,0
0.98074,0.12783,0.98305,1.0024,1,5.248,10,5.248,0
0.98083,0.12464,0.98304,1.0023,1,5.264,10,5.264,0
0.98091,0.12145,0.98303,1.0022,1,5.28,10,5.28,0
0.98099,0.11826,0.98302,1.0021,1,5.296,10,5.296,0
0.98108,0.11643,0.98302,1.002,1,5.312,10,5.312,0
0.98117,0.11479,0.98303,1.0019,1,5.328,10,5.328,0
0.98126,0.11316,0.98304,1.0018,1,5.344,10,5.344,0
0.98135,0.11152,0.98305,1.0017,1,5.36,10,5.36,0
0.98145,0.10988,0.98306,1.0016,1,5.376,10,5.376,0
0.98154,0.10825,0.98307,1.0016,1,5.392,10,5.392,0
0.98163,0.10661,0.98308,1.0015,1,5.408,10,5.408,0
0.98172,0.10497,0.98308,1.0014,1,5.424,10,5.424,0
0.98181,0.10331,0.9831,1.0013,1,5.44,10,5.44,0
0.98191,0.10163,0.98312,1.0012,1,5.456,10,5.456,0
0.98201,0.099938,0.98314,1.0011,1,5.472,10,5.472,0
0.98211,0.098251,0.98316,1.0011,1,5.488,10,5.488,0
0.98221,0.096563,0.98318,1.001,1,5.504,10,5.504,0
0.98231,0.094876,0.9832,1.0009,1,5.52,10,5.52,0
0.98241,0.093188,0.98322,1.0008,1,5.536,10,5.536,0
0.98251,0.091501,0.98323,1.0007,1,5.552,10,5.552,0
0.98261,0.089813,0.98325,1.0007,1,5.568,10,5.568,0
0.98271,0.088126,0.98327,1.0006,1,5.584,10,5.584,0
0.98281,0.086439,0.98329,1.0005,1,5.6,10,5.6,0
0.98291,0.084751,0.98331,1.0004,1,5.616,10,5.616,0
0.98301,0.083064,0.98333,1.0003,1,5.632,10,5.632,0
0.98311,0.081376,0.98335,1.0002,1,5.648,10,5.648,0
0.98321,0.079689,0.98337,1.0002,1,5.664,10,5.664,0
0.98331,0.078001,0.98339,1.0001,1,5.68,10,5.68,0
0.98341,0.076314,0.98341,1,1,5.696,10,5.696,0
0.98351,0.074627,0.98343,0.99991,1,5.712,10,5.712,0
0.98361,0.072939,0.98345,0.99983,1,5.728,10,5.728,0
0.98371,0.071252,0.98347,0.99975,1,5.744,10,5.744,0
0.98381,0.069564,0.98349,0.99967,1,5.76,10,5.76,0
0.98389,0.06859,0.9835,0.9996,1,5.776,10,5.776,0
0.98395,0.067681,0.9835,0.99954,1,5.792,10,5.792,0
0.98402,0.066772,0.98351,0.99948,1,5.808,10,5.808,0
0.98409,0.065863,0.98352,0.99942,1,5.824,10,5.824,0
0.98416,0.064954,0.98353,0.99936,1,5.84,10,5.84,0
0.98423,0.064045,0.98353,0.9993,1,5.856,10,5.856,0
0.9843,0.063136,0.98354,0.99923,1,5.872,10,5.872,0
0.98437,0.062227,0.98355,0.99917,1,5.888,10,5.888,0
0.98443,0.061319,0.98356,0.99911,1,5.904,10,5.904,0
0.9845,0.06041,0.98357,0.99905,1,5.92,10,5.92,0
0.98457,0.059501,0.98357,0.99899,1,5.936,10,5.936,0
0.98464,0.058592,0.98358,0.99893,1,5.952,10,5.952,0
0.98471,0.057683,0.98359,0.99886,1,5.968,10,5.968,0
0.98478,0.056774,0.9836,0.9988,1,5.984,10,5.984,0
0.98484,0.055893,0.98361,0.99874,1,6,10,6,0
0.98491,0.05504,0.98362,0.99869,1,6.016,10,6.016,0
0.98498,0.054187,0.98363,0.99863,1,6.032,10,6.032,0
0.98505,0.053333,0.98364,0.99857,1,6.048,10,6.048,0
0.98511,0.05248,0.98365,0.99852,1,6.064,10,6.064,0
0.98518,0.051627,0.98366,0.99846,1,6.08,10,6.08,0
0.98525,0.050773,0.98367,0.9984,1,6.096,10,6.096,0
0.98531,0.04992,0.98368,0.99835,1,6.112,10,6.112,0
0.98538,0.049066,0.98369,0.99829,1,6.128,10,6.128,0
0.98545,0.048213,0.98371,0.99823,1,6.144,10,6.144,0
0.98552,0.04736,0.98372,0.99818,1,6.16,10,6.16,0
0.98558,0.046506,0.98373,0.99812,1,6.176,10,6.176,0
0.98565,0.045653,0.98374,0.99806,1,6.192,10,6.192,0
0.98572,0.0448,0.98375,0.998,1,6.208,10,6.208,0
0.98578,0.043946,0.98376,0.99795,1,6.224,10,6.224,0
0.98585,0.043093,0.98377,0.99789,1,6.24,10,6.24,0
0.98592,0.04224,0.98378,0.99783,1,6.256,10,6.256,0
0.98597,0.041572,0.98379,0.99779,1,6.272,10,6.272,0
0.98601,0.041147,0.98379,0.99775,1,6.288,10,6.288,0
0.98605,0.040721,0.9838,0.99772,1,6.304,10,6.304,0
0.98609,0.040295,0.9838,0.99768,1,6.32,10,6.32,0
0.98613,0.03987,0.9838,0.99765,1,6.336,10,6.336,0
0.98616,0.039444,0.98381,0.99761,1,6.352,10,6.352,0
0.9862,0.039018,0.98381,0.99758,1,6.368,10,6.368,0
0.98624,0.038593,0.98381,0.99754,1,6.384,10,6.384,0
0.98628,0.038167,0.98382,0.99751,1,6.4,10,6.4,0
0.98632,0.037741,0.98382,0.99747,1,6.416,10,6.416,0
0.98635,0.037315,0.98382,0.99744,1,6.432,10,6.432,0
0.98639,0.03689,0.98383,0.9974,1,6.448,10,6.448,0
0.98643,0.036464,0.98383,0.99737,1,6.464,10,6.464,0
0.98647,0.036038,0.98383,0.99733,1,6.48,10,6.48,0
