"Density","Mach","Pressure","Temperature","vtkValidPointMask","arc_length","Points:0","Points:1","Points:2"
1.0674,3.2787,0.17648,0.19513,1,0,10,0,0
1.07,3.276,0.17705,0.19533,1,0.016,10,0.016,0
1.0727,3.2733,0.17766,0.19553,1,0.032,10,0.032,0
1.0757,3.2708,0.17832,0.19575,1,0.048,10,0.048,0
1.0786,3.2682,0.17897,0.19596,1,0.064,10,0.064,0
1.0816,3.2656,0.17963,0.19618,1,0.08,10,0.08,0
1.0845,3.263,0.18029,0.19639,1,0.096,10,0.096,0
1.0875,3.2604,0.18095,0.19661,1,0.112,10,0.112,0
1.0905,3.2579,0.1816,0.19682,1,0.128,10,0.128,0
1.0934,3.2553,0.18226,0.19704,1,0.144,10,0.144,0
1.0964,3.2527,0.18292,0.19725,1,0.16,10,0.16,0
1.0993,3.2501,0.18357,0.19747,1,0.176,10,0.176,0
1.1023,3.2475,0.18423,0.19768,1,0.192,10,0.192,0
1.1052,3.245,0.18489,0.19789,1,0.208,10,0.208,0
1.1082,3.2424,0.18555,0.19811,1,0.224,10,0.224,0
1.1111,3.2398,0.1862,0.19832,1,0.24,10,0.24,0
1.1141,3.2372,0.18686,0.19854,1,0.256,10,0.256,0
1.117,3.2346,0.18752,0.19875,1,0.272,10,0.272,0
1.12,3.232,0.18818,0.19897,1,0.288,10,0.288,0
1.1229,3.2295,0.18883,0.19918,1,0.304,10,0.304,0
1.1259,3.2269,0.18949,0.1994,1,0.32,10,0.32,0
1.1289,3.2243,0.19015,0.19961,1,0.336,10,0.336,0
1.1318,3.2217,0.19081,0.19983,1,0.352,10,0.352,0
1.1348,3.2191,0.19146,0.20004,1,0.368,10,0.368,0
1.1377,3.2166,0.19212,0.20026,1,0.384,10,0.384,0
1.1407,3.214,0.19278,0.20047,1,0.4,10,0.4,0
1.1436,3.2114,0.19343,0.20069,1,0.416,10,0.416,0
1.1466,3.2088,0.19409,0.2009,1,0.432,10,0.432,0
1.1496,3.2062,0.19477,0.20112,1,0.448,10,0.448,0
1.1542,3.2021,0.1958,0.20147,1,0.464,10,0.464,0
1.1603,3.1971,0.19723,0.20193,1,0.48,10,0.48,0
1.1672,3.192,0.19889,0.20242,1,0.496,10,0.496,0
1.1742,3.1869,0.20056,0.20292,1,0.512,10,0.512,0
1.1811,3.1817,0.20222,0.20342,1,0.528,10,0.528,0
1.188,3.1766,0.20389,0.20392,1,0.544,10,0.544,0
1.195,3.1715,0.20555,0.20442,1,0.56,10,0.56,0
1.2019,3.1664,0.20722,0.20492,1,0.576,10,0.576,0
1.2089,3.1613,0.20888,0.20542,1,0.592,10,0.592,0
1.2158,3.1562,0.21055,0.20592,1,0.608,10,0.608,0
1.2227,3.1511,0.21221,0.20641,1,0.624,10,0.624,0
1.2297,3.146,0.21388,0.20691,1,0.64,10,0.64,0
1.2366,3.1409,0.21555,0.20741,1,0.656,10,0.656,0
1.2436,3.1358,0.21721,0.20791,1,0.672,10,0.672,0
1.2504,3.1308,0.21885,0.2084,1,0.688,10,0.688,0
1.2572,3.1257,0.22047,0.20889,1,0.704,10,0.704,0
1.264,3.1207,0.22209,0.20938,1,0.72,10,0.72,0
1.2707,3.1157,0.22372,0.20987,1,0.736,10,0.736,0
1.2775,3.1107,0.22534,0.21036,1,0.752,10,0.752,0
1.2843,3.1057,0.22696,0.21084,1,0.768,10,0.768,0
1.2911,3.1006,0.22858,0.21133,1,0.784,10,0.784,0
1.2979,3.0956,0.2302,0.21182,1,0.8,10,0.8,0
1.3047,3.0906,0.23183,0.21231,1,0.816,10,0.816,0
1.3114,3.0856,0.23345,0.2128,1,0.832,10,0.832,0
1.3182,3.0806,0.23507,0.21329,1,0.848,10,0.848,0
1.325,3.0755,0.23669,0.21377,1,0.864,10,0.864,0
1.3318,3.0705,0.23831,0.21426,1,0.88,10,0.88,0
1.3386,3.0655,0.23994,0.21475,1,0.896,10,0.896,0
1.3453,3.0605,0.24156,0.21524,1,0.912,10,0.912,0
1.3521,3.0555,0.24318,0.21573,1,0.928,10,0.928,0
1.3589,3.0504,0.2448,0.21621,1,0.944,10,0.944,0
1.3657,3.0454,0.24642,0.2167,1,0.96,10,0.96,0
1.3725,3.0404,0.24805,0.21719,1,0.976,10,0.976,0
1.3793,3.0354,0.24967,0.21768,1,0.992,10,0.992,0
1.386,3.0304,0.25129,0.21817,1,1.008,10,1.008,0
1.3928,3.0253,0.25291,0.21866,1,1.024,10,1.024,0
1.4,3.0202,0.25466,0.21917,1,1.04,10,1.04,0
1.4075,3.015,0.25648,0.21969,1,1.056,10,1.056,0
1.4161,3.0096,0.25867,0.22028,1,1.072,10,1.072,0
1.4288,3.0022,0.26201,0.2211,1,1.088,10,1.088,0
1.4438,2.9935,0.26604,0.22207,1,1.104,10,1.104,0
1.4589,2.9848,0.27008,0.22303,1,1.12,10,1.12,0
1.474,2.9762,0.27411,0.224,1,1.136,10,1.136,0
1.4892,2.9675,0.27817,0.22497,1,1.152,10,1.152,0
1.5047,2.9586,0.28234,0.22597,1,1.168,10,1.168,0
1.5203,2.9497,0.2865,0.22698,1,1.184,10,1.184,0
1.5359,2.9408,0.29067,0.22798,1,1.2,10,1.2,0
1.5514,2.9319,0.29483,0.22898,1,1.216,10,1.216,0
1.567,2.9231,0.299,0.22998,1,1.232,10,1.232,0
1.5826,2.9142,0.30316,0.23098,1,1.248,10,1.248,0
1.5981,2.9053,0.30733,0.23198,1,1.264,10,1.264,0
1.6137,2.8964,0.31149,0.23298,1,1.28,10,1.28,0
1.6293,2.8876,0.31566,0.23398,1,1.296,10,1.296,0
1.6448,2.8787,0.31982,0.23498,1,1.312,10,1.312,0
1.6604,2.8698,0.32398,0.23599,1,1.328,10,1.328,0
1.676,2.8609,0.32815,0.23699,1,1.344,10,1.344,0
1.6915,2.852,0.33231,0.23799,1,1.36,10,1.36,0
1.7071,2.8432,0.33648,0.23899,1,1.376,10,1.376,0
1.7227,2.8343,0.34064,0.23999,1,1.392,10,1.392,0
1.7382,2.8254,0.34481,0.24099,1,1.408,10,1.408,0
1.7538,2.8165,0.34897,0.24199,1,1.424,10,1.424,0
1.7693,2.8076,0.35314,0.24299,1,1.44,10,1.44,0
1.7849,2.7988,0.3573,0.24399,1,1.456,10,1.456,0
1.8005,2.7899,0.36147,0.245,1,1.472,10,1.472,0
1.816,2.781,0.36563,0.246,1,1.488,10,1.488,0
1.8316,2.7721,0.36979,0.247,1,1.504,10,1.504,0
1.8472,2.7633,0.37396,0.248,1,1.52,10,1.52,0
1.8627,2.7544,0.37812,0.249,1,1.536,10,1.536,0
1.8783,2.7455,0.38229,0.25,1,1.552,10,1.552,0
1.8939,2.7366,0.38645,0.251,1,1.568,10,1.568,0
1.9094,2.7277,0.39062,0.252,1,1.584,10,1.584,0
1.9273,2.7193,0.39552,0.25302,1,1.6,10,1.6,0
1.9495,2.7119,0.40185,0.25408,1,1.616,10,1.616,0
1.9718,2.7044,0.40819,0.25513,1,1.632,10,1.632,0
1.994,2.6969,0.41453,0.25618,1,1.648,10,1.648,0
2.0163,2.6895,0.42087,0.25723,1,1.664,10,1.664,0
2.0385,2.682,0.42721,0.25829,1,1.68,10,1.68,0
2.0608,2.6745,0.43354,0.25934,1,1.696,10,1.696,0
2.083,2.6671,0.43988,0.26039,1,1.712,10,1.712,0
2.1053,2.6596,0.44622,0.26144,1,1.728,10,1.728,0
2.1276,2.6521,0.45256,0.2625,1,1.744,10,1.744,0
2.1498,2.6447,0.4589,0.26355,1,1.76,10,1.76,0
2.1721,2.6372,0.46523,0.2646,1,1.776,10,1.776,0
2.1943,2.6297,0.47157,0.26566,1,1.792,10,1.792,0
2.2166,2.6217,0.47792,0.26675,1,1.808,10,1.808,0
2.2389,2.6133,0.48427,0.26788,1,1.824,10,1.824,0
2.2612,2.6049,0.49062,0.269,1,1.84,10,1.84,0
2.2835,2.5964,0.49697,0.27013,1,1.856,10,1.856,0
2.3058,2.588,0.50332,0.27126,1,1.872,10,1.872,0
2.3281,2.5795,0.50967,0.27239,1,1.888,10,1.888,0
2.3504,2.5711,0.51602,0.27352,1,1.904,10,1.904,0
2.3727,2.5627,0.52237,0.27464,1,1.92,10,1.92,0
2.395,2.5542,0.52872,0.27577,1,1.936,10,1.936,0
2.4173,2.5458,0.53507,0.2769,1,1.952,10,1.952,0
2.4396,2.5373,0.54142,0.27803,1,1.968,10,1.968,0
2.4619,2.5289,0.54777,0.27916,1,1.984,10,1.984,0
2.4842,2.5204,0.55412,0.28028,1,2,10,2,0
2.5065,2.512,0.56047,0.28141,1,2.016,10,2.016,0
2.5288,2.5036,0.56682,0.28254,1,2.032,10,2.032,0
2.5511,2.4951,0.57317,0.28367,1,2.048,10,2.048,0
2.5734,2.4867,0.57952,0.28479,1,2.064,10,2.064,0
2.5954,2.4788,0.58582,0.28586,1,2.08,10,2.08,0
2.6159,2.4739,0.59188,0.28666,1,2.096,10,2.096,0
2.6364,2.469,0.59793,0.28745,1,2.112,10,2.112,0
2.6569,2.4641,0.60399,0.28824,1,2.128,10,2.128,0
2.6774,2.4592,0.61005,0.28903,1,2.144,10,2.144,0
2.6979,2.4543,0.61611,0.28982,1,2.16,10,2.16,0
2.7184,2.4494,0.62216,0.29061,1,2.176,10,2.176,0
2.7389,2.4444,0.62822,0.2914,1,2.192,10,2.192,0
2.7594,2.4395,0.63428,0.29219,1,2.208,10,2.208,0
2.7799,2.4346,0.64033,0.29298,1,2.224,10,2.224,0
2.8004,2.4297,0.64639,0.29377,1,2.24,10,2.24,0
2.8209,2.4248,0.65245,0.29456,1,2.256,10,2.256,0
2.8414,2.4199,0.65851,0.29536,1,2.272,10,2.272,0
2.8619,2.4149,0.66456,0.29615,1,2.288,10,2.288,0
2.8824,2.41,0.67062,0.29694,1,2.304,10,2.304,0
2.9029,2.4051,0.67668,0.29773,1,2.32,10,2.32,0
2.9234,2.4002,0.68274,0.29852,1,2.336,10,2.336,0
2.9439,2.3953,0.68879,0.29931,1,2.352,10,2.352,0
2.9644,2.3904,0.69485,0.3001,1,2.368,10,2.368,0
2.9849,2.3855,0.70091,0.30089,1,2.384,10,2.384,0
3.0054,2.3805,0.70696,0.30168,1,2.4,10,2.4,0
3.0259,2.3756,0.71302,0.30247,1,2.416,10,2.416,0
3.0464,2.3707,0.71908,0.30326,1,2.432,10,2.432,0
3.0669,2.3658,0.72514,0.30406,1,2.448,10,2.448,0
3.0874,2.3609,0.73119,0.30485,1,2.464,10,2.464,0
3.1079,2.356,0.73725,0.30564,1,2.48,10,2.48,0
3.1284,2.351,0.74331,0.30643,1,2.496,10,2.496,0
3.1489,2.3461,0.74936,0.30722,1,2.512,10,2.512,0
3.1694,2.3412,0.75542,0.30801,1,2.528,10,2.528,0
3.1899,2.3363,0.76148,0.3088,1,2.544,10,2.544,0
3.2099,2.3316,0.76742,0.30956,1,2.56,10,2.56,0
3.2293,2.3271,0.77326,0.3103,1,2.576,10,2.576,0
3.2488,2.3226,0.77911,0.31104,1,2.592,10,2.592,0
3.2683,2.3181,0.78495,0.31178,1,2.608,10,2.608,0
3.2878,2.3135,0.79079,0.31252,1,2.624,10,2.624,0
3.302,2.3102,0.79537,0.31307,1,2.64,10,2.64,0
3.3146,2.3069,0.79968,0.3136,1,2.656,10,2.656,0
3.3256,2.3035,0.80379,0.31413,1,2.672,10,2.672,0
3.3366,2.3001,0.8079,0.31467,1,2.688,10,2.688,0
3.3477,2.2967,0.81201,0.3152,1,2.704,10,2.704,0
3.3587,2.2933,0.81612,0.31574,1,2.72,10,2.72,0
3.3713,2.2899,0.82054,0.31629,1,2.736,10,2.736,0
3.3841,2.2864,0.82498,0.31684,1,2.752,10,2.752,0
3.3968,2.283,0.82942,0.3174,1,2.768,10,2.768,0
3.4095,2.2795,0.83387,0.31796,1,2.784,10,2.784,0
3.4223,2.2761,0.83831,0.31851,1,2.8,10,2.8,0
3.435,2.2726,0.84275,0.31907,1,2.816,10,2.816,0
3.4478,2.2691,0.84719,0.31962,1,2.832,10,2.832,0
3.4605,2.2657,0.85163,0.32018,1,2.848,10,2.848,0
3.4732,2.2622,0.85608,0.32073,1,2.864,10,2.864,0
3.486,2.2588,0.86052,0.32129,1,2.88,10,2.88,0
3.4987,2.2553,0.86496,0.32184,1,2.896,10,2.896,0
3.5115,2.2518,0.8694,0.3224,1,2.912,10,2.912,0
3.5242,2.2484,0.87385,0.32295,1,2.928,10,2.928,0
3.5369,2.2449,0.87829,0.32351,1,2.944,10,2.944,0
3.5497,2.2415,0.88273,0.32406,1,2.96,10,2.96,0
3.5624,2.238,0.88717,0.32462,1,2.976,10,2.976,0
3.5752,2.2345,0.89161,0.32518,1,2.992,10,2.992,0
3.5879,2.2311,0.89606,0.32573,1,3.008,10,3.008,0
3.6006,2.2276,0.9005,0.32629,1,3.024,10,3.024,0
3.6134,2.2242,0.90494,0.32684,1,3.04,10,3.04,0
3.6261,2.2207,0.90938,0.3274,1,3.056,10,3.056,0
3.6389,2.2172,0.91383,0.32795,1,3.072,10,3.072,0
3.6516,2.2138,0.91827,0.32851,1,3.088,10,3.088,0
3.6643,2.2103,0.92271,0.32906,1,3.104,10,3.104,0
3.6771,2.2068,0.92715,0.32962,1,3.12,10,3.12,0
3.6875,2.2033,0.93122,0.33017,1,3.136,10,3.136,0
3.6926,2.1996,0.93445,0.33071,1,3.152,10,3.152,0
3.6978,2.1958,0.93769,0.33124,1,3.168,10,3.168,0
3.703,2.1921,0.94092,0.33178,1,3.184,10,3.184,0
3.7081,2.1884,0.94416,0.33232,1,3.2,10,3.2,0
3.7133,2.1847,0.94739,0.33285,1,3.216,10,3.216,0
3.7184,2.1809,0.95062,0.33339,1,3.232,10,3.232,0
3.7236,2.1772,0.95386,0.33393,1,3.248,10,3.248,0
3.7288,2.1735,0.95709,0.33447,1,3.264,10,3.264,0
3.7339,2.1697,0.96033,0.335,1,3.28,10,3.28,0
3.7391,2.166,0.96356,0.33554,1,3.296,10,3.296,0
3.7442,2.1623,0.96679,0.33608,1,3.312,10,3.312,0
3.7494,2.1586,0.97003,0.33661,1,3.328,10,3.328,0
3.7538,2.1549,0.97308,0.33714,1,3.344,10,3.344,0
3.7571,2.1513,0.9759,0.33765,1,3.36,10,3.36,0
3.7605,2.1477,0.97872,0.33816,1,3.376,10,3.376,0
3.7638,2.1441,0.98154,0.33867,1,3.392,10,3.392,0
3.7671,2.1406,0.98435,0.33918,1,3.408,10,3.408,0
3.7705,2.137,0.98717,0.33969,1,3.424,10,3.424,0
3.7738,2.1334,0.98999,0.3402,1,3.44,10,3.44,0
3.7772,2.1298,0.99281,0.34071,1,3.456,10,3.456,0
3.7805,2.1263,0.99562,0.34122,1,3.472,10,3.472,0
3.7838,2.1227,0.99844,0.34173,1,3.488,10,3.488,0
3.7872,2.1191,1.0013,0.34224,1,3.504,10,3.504,0
3.7905,2.1155,1.0041,0.34275,1,3.52,10,3.52,0
3.7934,2.1119,1.0068,0.34327,1,3.536,10,3.536,0
3.7935,2.1079,1.0092,0.3438,1,3.552,10,3.552,0
3.7937,2.104,1.0115,0.34433,1,3.568,10,3.568,0
3.7938,2.1,1.0138,0.34486,1,3.584,10,3.584,0
3.7939,2.096,1.0162,0.3454,1,3.6,10,3.6,0
3.7941,2.0921,1.0185,0.34593,1,3.616,10,3.616,0
3.7942,2.0881,1.0208,0.34646,1,3.632,10,3.632,0
3.7943,2.0842,1.0232,0.347,1,3.648,10,3.648,0
3.7945,2.0802,1.0255,0.34753,1,3.664,10,3.664,0
3.7946,2.0761,1.0279,0.34808,1,3.68,10,3.68,0
3.7948,2.072,1.0304,0.34864,1,3.696,10,3.696,0
3.795,2.0678,1.0329,0.34921,1,3.712,10,3.712,0
3.7951,2.0637,1.0354,0.34977,1,3.728,10,3.728,0
3.7953,2.0595,1.0379,0.35034,1,3.744,10,3.744,0
3.7955,2.0554,1.0403,0.3509,1,3.76,10,3.76,0
3.7956,2.0512,1.0428,0.35146,1,3.776,10,3.776,0
3.7953,2.0469,1.0452,0.35204,1,3.792,10,3.792,0
3.7925,2.0418,1.0474,0.35268,1,3.808,10,3.808,0
3.7898,2.0367,1.0496,0.35332,1,3.824,10,3.824,0
3.787,2.0315,1.0517,0.35396,1,3.84,10,3.84,0
3.7842,2.0264,1.0539,0.35459,1,3.856,10,3.856,0
3.7814,2.0213,1.0561,0.35523,1,3.872,10,3.872,0
3.7786,2.0161,1.0582,0.35587,1,3.888,10,3.888,0
3.7758,2.011,1.0604,0.35651,1,3.904,10,3.904,0
3.7728,2.0058,1.0625,0.35716,1,3.92,10,3.92,0
3.7688,2,1.0647,0.35786,1,3.936,10,3.936,0
3.7647,1.9942,1.0669,0.35857,1,3.952,10,3.952,0
3.7607,1.9884,1.0691,0.35927,1,3.968,10,3.968,0
3.7567,1.9827,1.0712,0.35998,1,3.984,10,3.984,0
3.7526,1.9769,1.0734,0.36068,1,4,10,4,0
3.7486,1.9711,1.0756,0.36139,1,4.016,10,4.016,0
3.7446,1.9653,1.0777,0.36209,1,4.032,10,4.032,0
3.7321,1.9566,1.0792,0.3631,1,4.048,10,4.048,0
3.7196,1.9478,1.0807,0.36411,1,4.064,10,4.064,0
3.7071,1.9391,1.0822,0.36512,1,4.08,10,4.08,0
3.6926,1.9288,1.084,0.36634,1,4.096,10,4.096,0
3.6762,1.9172,1.0862,0.36777,1,4.112,10,4.112,0
3.6599,1.9055,1.0884,0.3692,1,4.128,10,4.128,0
3.6426,1.8935,1.0905,0.37067,1,4.144,10,4.144,0
3.6223,1.8802,1.0925,0.37231,1,4.16,10,4.16,0
3.602,1.8669,1.0946,0.37396,1,4.176,10,4.176,0
3.5733,1.8494,1.0967,0.37626,1,4.192,10,4.192,0
3.5413,1.8302,1.0989,0.37884,1,4.208,10,4.208,0
3.5091,1.8108,1.1012,0.38144,1,4.224,10,4.224,0
3.4744,1.7898,1.1038,0.38431,1,4.24,10,4.24,0
3.4397,1.7687,1.1065,0.38717,1,4.256,10,4.256,0
3.3879,1.739,1.1092,0.39176,1,4.272,10,4.272,0
3.3268,1.7045,1.1119,0.39728,1,4.288,10,4.288,0
3.2657,1.6701,1.1146,0.4028,1,4.304,10,4.304,0
3.2094,1.638,1.1172,0.40777,1,4.32,10,4.32,0
3.1536,1.6063,1.1199,0.41269,1,4.336,10,4.336,0
3.0724,1.5609,1.1229,0.42088,1,4.352,10,4.352,0
2.9689,1.5042,1.1251,0.43188,1,4.368,10,4.368,0
2.8535,1.4415,1.1265,0.44442,1,4.384,10,4.384,0
2.709,1.365,1.1251,0.46167,1,4.4,10,4.4,0
2.5406,1.2762,1.1222,0.4827,1,4.416,10,4.416,0
2.3309,1.1549,1.1197,0.51885,1,4.432,10,4.432,0
2.1145,1.027,1.1184,0.5585,1,4.448,10,4.448,0
1.8756,0.8641,1.1214,0.62283,1,4.464,10,4.464,0
1.6437,0.68414,1.1248,0.70061,1,4.48,10,4.48,0
1.4599,0.5035,1.1245,0.78118,1,4.496,10,4.496,0
1.3432,0.36617,1.1224,0.84346,1,4.512,10,4.512,0
1.2743,0.27456,1.1217,0.88576,1,4.528,10,4.528,0
1.2281,0.2053,1.123,0.91802,1,4.544,10,4.544,0
1.2004,0.16215,1.1227,0.93803,1,4.56,10,4.56,0
1.1837,0.13413,1.1234,0.95119,1,4.576,10,4.576,0
1.1728,0.11511,1.1233,0.95969,1,4.592,10,4.592,0
1.1649,0.10082,1.1236,0.96608,1,4.608,10,4.608,0
1.1596,0.090323,1.124,0.97073,1,4.624,10,4.624,0
1.1559,0.082867,1.1241,0.97377,1,4.64,10,4.64,0
1.1533,0.07724,1.1242,0.97597,1,4.656,10,4.656,0
1.1513,0.07271,1.1243,0.97772,1,4.672,10,4.672,0
1.1499,0.069066,1.1246,0.97916,1,4.688,10,4.688,0
1.1486,0.066555,1.1246,0.98019,1,4.704,10,4.704,0
1.1474,0.064136,1.1246,0.98119,1,4.72,10,4.72,0
1.1462,0.061842,1.1246,0.98215,1,4.736,10,4.736,0
1.1453,0.05998,1.1246,0.98296,1,4.752,10,4.752,0
1.1446,0.058671,1.1247,0.98353,1,4.768,10,4.768,0
1.144,0.057484,1.1247,0.98404,1,4.784,10,4.784,0
1.1434,0.05628,1.1246,0.98456,1,4.8,10,4.8,0
1.1427,0.055071,1.1246,0.98508,1,4.816,10,4.816,0
1.1421,0.054037,1.1245,0.98553,1,4.832,10,4.832,0
1.1418,0.05333,1.1246,0.98583,1,4.848,10,4.848,0
1.1414,0.052624,1.1246,0.98614,1,4.864,10,4.864,0
1.1411,0.051917,1.1246,0.98644,1,4.88,10,4.88,0
1.1407,0.05121,1.1246,0.98675,1,4.896,10,4.896,0
1.1405,0.050618,1.1246,0.987,1,4.912,10,4.912,0
1.1402,0.050118,1.1246,0.98722,1,4.928,10,4.928,0
1.14,0.049619,1.1247,0.98743,1,4.944,10,4.944,0
1.1397,0.04912,1.1247,0.98764,1,4.96,10,4.96,0
1.1395,0.048621,1.1247,0.98786,1,4.976,10,4.976,0
1.1392,0.048121,1.1247,0.98807,1,4.992,10,4.992,0
1.139,0.047622,1.1247,0.98828,1,5.008,10,5.008,0
1.1388,0.047123,1.1247,0.98849,1,5.024,10,5.024,0
1.1385,0.046624,1.1247,0.98871,1,5.04,10,5.04,0
1.1383,0.046133,1.1247,0.98892,1,5.056,10,5.056,0
1.138,0.045667,1.1247,0.98911,1,5.072,10,5.072,0
1.1378,0.0452,1.1247,0.98931,1,5.088,10,5.088,0
1.1376,0.044734,1.1247,0.98951,1,5.104,10,5.104,0
1.1373,0.044268,1.1247,0.98971,1,5.12,10,5.12,0
1.1371,0.043801,1.1247,0.98991,1,5.136,10,5.136,0
1.1369,0.043368,1.1248,0.99009,1,5.152,10,5.152,0
1.1367,0.042945,1.1248,0.99026,1,5.168,10,5.168,0
1.1365,0.042598,1.1248,0.9904,1,5.184,10,5.184,0
1.1364,0.042333,1.1248,0.9905,1,5.2,10,5.2,0
1.1363,0.042068,1.1247,0.9906,1,5.216,10,5.216,0
1.1362,0.041803,1.1247,0.9907,1,5.232,10,5.232,0
1.136,0.041538,1.1247,0.9908,1,5.248,10,5.248,0
1.1359,0.041272,1.1247,0.9909,1,5.264,10,5.264,0
1.1358,0.041007,1.1247,0.991,1,5.28,10,5.28,0
1.1357,0.040738,1.1247,0.9911,1,5.296,10,5.296,0
1.1355,0.040457,1.1247,0.99121,1,5.312,10,5.312,0
1.1354,0.040177,1.1247,0.99133,1,5.328,10,5.328,0
1.1352,0.039896,1.1247,0.99144,1,5.344,10,5.344,0
1.1351,0.039616,1.1247,0.99155,1,5.36,10,5.36,0
1.1349,0.039335,1.1247,0.99166,1,5.376,10,5.376,0
1.1348,0.039054,1.1246,0.99177,1,5.392,10,5.392,0
1.1347,0.038774,1.1246,0.99189,1,5.408,10,5.408,0
1.1345,0.038493,1.1246,0.992,1,5.424,10,5.424,0
1.1344,0.038213,1.1246,0.99211,1,5.44,10,5.44,0
1.1342,0.037932,1.1246,0.99222,1,5.456,10,5.456,0
1.1341,0.037651,1.1246,0.99234,1,5.472,10,5.472,0
1.1339,0.037371,1.1246,0.99245,1,5.488,10,5.488,0
1.1338,0.03709,1.1246,0.99256,1,5.504,10,5.504,0
1.1337,0.03681,1.1246,0.99267,1,5.52,10,5.52,0
1.1335,0.036529,1.1246,0.99278,1,5.536,10,5.536,0
1.1334,0.036248,1.1246,0.9929,1,5.552,10,5.552,0
1.1332,0.035968,1.1245,0.99301,1,5.568,10,5.568,0
1.1331,0.035687,1.1245,0.99312,1,5.584,10,5.584,0
1.133,0.035407,1.1245,0.99323,1,5.6,10,5.6,0
1.1328,0.035126,1.1245,0.99334,1,5.616,10,5.616,0
1.1327,0.034845,1.1245,0.99346,1,5.632,10,5.632,0
1.1325,0.034565,1.1245,0.99357,1,5.648,10,5.648,0
1.1324,0.034284,1.1245,0.99368,1,5.664,10,5.664,0
1.1322,0.034004,1.1245,0.99379,1,5.68,10,5.68,0
1.1321,0.033729,1.1245,0.9939,1,5.696,10,5.696,0
1.132,0.033554,1.1245,0.99398,1,5.712,10,5.712,0
1.1319,0.033379,1.1245,0.99406,1,5.728,10,5.728,0
1.1318,0.033204,1.1245,0.99413,1,5.744,10,5.744,0
1.1317,0.033029,1.1245,0.99421,1,5.76,10,5.76,0
1.1317,0.032854,1.1245,0.99428,1,5.776,10,5.776,0
1.1316,0.03268,1.1245,0.99436,1,5.792,10,5.792,0
1.1315,0.032505,1.1245,0.99444,1,5.808,10,5.808,0
1.1314,0.03233,1.1245,0.99451,1,5.824,10,5.824,0
1.1313,0.032155,1.1245,0.99459,1,5.84,10,5.84,0
1.1312,0.03198,1.1245,0.99467,1,5.856,10,5.856,0
1.1311,0.031806,1.1245,0.99474,1,5.872,10,5.872,0
1.131,0.031631,1.1245,0.99482,1,5.888,10,5.888,0
1.131,0.031456,1.1245,0.99489,1,5.904,10,5.904,0
1.1309,0.031281,1.1245,0.99497,1,5.92,10,5.92,0
1.1308,0.031106,1.1245,0.99505,1,5.936,10,5.936,0
1.1307,0.030934,1.1245,0.99512,1,5.952,10,5.952,0
1.1306,0.030783,1.1245,0.99519,1,5.968,10,5.968,0
1.1305,0.030632,1.1245,0.99525,1,5.984,10,5.984,0
1.1305,0.03048,1.1245,0.99532,1,6,10,6,0
1.1304,0.030329,1.1245,0.99538,1,6.016,10,6.016,0
1.1303,0.030178,1.1245,0.99545,1,6.032,10,6.032,0
1.1302,0.030026,1.1245,0.99552,1,6.048,10,6.048,0
1.1302,0.029875,1.1245,0.99558,1,6.064,10,6.064,0
1.1301,0.029724,1.1245,0.99565,1,6.08,10,6.08,0
1.13,0.029573,1.1245,0.99571,1,6.096,10,6.096,0
1.1299,0.029421,1.1245,0.99578,1,6.112,10,6.112,0
1.1299,0.02927,1.1245,0.99584,1,6.128,10,6.128,0
1.1298,0.029119,1.1245,0.99591,1,6.144,10,6.144,0
1.1297,0.028967,1.1245,0.99597,1,6.16,10,6.16,0
1.1296,0.028816,1.1245,0.99604,1,6.176,10,6.176,0
1.1296,0.028665,1.1245,0.9961,1,6.192,10,6.192,0
1.1295,0.028513,1.1245,0.99617,1,6.208,10,6.208,0
1.1294,0.028362,1.1245,0.99624,1,6.224,10,6.224,0
1.1293,0.028247,1.1245,0.99629,1,6.24,10,6.24,0
1.1293,0.02816,1.1245,0.99633,1,6.256,10,6.256,0
1.1292,0.028072,1.1245,0.99638,1,6.272,10,6.272,0
1.1292,0.027985,1.1245,0.99642,1,6.288,10,6.288,0
1.1291,0.027898,1.1245,0.99646,1,6.304,10,6.304,0
1.1291,0.02781,1.1245,0.99651,1,6.32,10,6.32,0
1.129,0.027723,1.1245,0.99655,1,6.336,10,6.336,0
1.129,0.027635,1.1245,0.99659,1,6.352,10,6.352,0
1.1289,0.027548,1.1245,0.99664,1,6.368,10,6.368,0
1.1289,0.02746,1.1245,0.99668,1,6.384,10,6.384,0
1.1288,0.027373,1.1245,0.99672,1,6.4,10,6.4,0
1.1288,0.027285,1.1245,0.99677,1,6.416,10,6.416,0
1.1287,0.027198,1.1245,0.99681,1,6.432,10,6.432,0
1.1287,0.02711,1.1245,0.99685,1,6.448,10,6.448,0
1.1286,0.027023,1.1245,0.9969,1,6.464,10,6.464,0
1.1286,0.026935,1.1245,0.99694,1,6.48,10,6.48,0
1.1285,0.026848,1.1245,0.99698,1,6.496,10,6.496,0
1.1285,0.026761,1.1245,0.99703,1,6.512,10,6.512,0
1.1284,0.026673,1.1245,0.99707,1,6.528,10,6.528,0
1.1284,0.026586,1.1245,0.99711,1,6.544,10,6.544,0
1.1283,0.026498,1.1245,0.99716,1,6.56,10,6.56,0
1.1283,0.026411,1.1245,0.9972,1,6.576,10,6.576,0
