"Density","Mach","Pressure","Temperature","vtkValidPointMask","arc_length","Points:0","Points:1","Points:2"
6.9185,0.2407,7.6821,1.1104,1,0,-8.1,0,0
6.9171,0.24149,7.6799,1.1103,1,0.0731,-8.0269,0,0
6.9157,0.24228,7.6777,1.1102,1,0.1462,-7.9538,0,0
6.9143,0.24307,7.6755,1.1101,1,0.2193,-7.8807,0,0
6.9129,0.24387,7.6733,1.11,1,0.2924,-7.8076,0,0
6.9115,0.24466,7.6711,1.1099,1,0.3655,-7.7345,0,0
6.9101,0.24545,7.6689,1.1098,1,0.4386,-7.6614,0,0
6.9083,0.24643,7.6661,1.1097,1,0.5117,-7.5883,0,0
6.9044,0.24829,7.6602,1.1095,1,0.5848,-7.5152,0,0
6.9004,0.25015,7.6542,1.1092,1,0.6579,-7.4421,0,0
6.8965,0.25202,7.6483,1.109,1,0.731,-7.369,0,0
6.8925,0.25388,7.6424,1.1088,1,0.8041,-7.2959,0,0
6.8886,0.25575,7.6365,1.1086,1,0.8772,-7.2228,0,0
6.8846,0.25761,7.6306,1.1083,1,0.9503,-7.1497,0,0
6.8799,0.25978,7.6235,1.1081,1,1.0234,-7.0766,0,0
6.8733,0.26266,7.6139,1.1077,1,1.0965,-7.0035,0,0
6.8668,0.26554,7.6043,1.1074,1,1.1696,-6.9304,0,0
6.8602,0.26841,7.5947,1.1071,1,1.2427,-6.8573,0,0
6.8537,0.27129,7.5851,1.1067,1,1.3158,-6.7842,0,0
6.8471,0.27416,7.5755,1.1064,1,1.3889,-6.7111,0,0
6.8405,0.27704,7.5659,1.106,1,1.462,-6.638,0,0
6.8331,0.28038,7.5548,1.1056,1,1.5351,-6.5649,0,0
6.8244,0.28442,7.5417,1.1051,1,1.6082,-6.4918,0,0
6.8156,0.28846,7.5286,1.1046,1,1.6813,-6.4187,0,0
6.8069,0.2925,7.5154,1.1041,1,1.7544,-6.3456,0,0
6.7982,0.29654,7.5023,1.1036,1,1.8275,-6.2725,0,0
6.7894,0.30058,7.4891,1.103,1,1.9006,-6.1994,0,0
6.7807,0.30461,7.476,1.1025,1,1.9737,-6.1263,0,0
6.7709,0.30921,7.461,1.1019,1,2.0468,-6.0532,0,0
6.7596,0.31454,7.4435,1.1012,1,2.1199,-5.9801,0,0
6.7483,0.31986,7.4261,1.1004,1,2.193,-5.907,0,0
6.7371,0.32518,7.4087,1.0997,1,2.2661,-5.8339,0,0
6.7258,0.33051,7.3912,1.0989,1,2.3392,-5.7608,0,0
6.7145,0.33583,7.3738,1.0982,1,2.4123,-5.6877,0,0
6.7032,0.34116,7.3564,1.0974,1,2.4854,-5.6146,0,0
6.6883,0.34732,7.3339,1.0965,1,2.5585,-5.5415,0,0
6.6685,0.35461,7.3046,1.0954,1,2.6316,-5.4684,0,0
6.6487,0.3619,7.2754,1.0943,1,2.7047,-5.3953,0,0
6.6289,0.36919,7.2461,1.0931,1,2.7778,-5.3222,0,0
6.6079,0.37683,7.2151,1.0919,1,2.8509,-5.2491,0,0
6.5868,0.38451,7.1839,1.0906,1,2.924,-5.176,0,0
6.5658,0.39219,7.1527,1.0894,1,2.9971,-5.1029,0,0
6.545,0.40013,7.1215,1.0881,1,3.0702,-5.0298,0,0
6.5248,0.40849,7.0903,1.0866,1,3.1433,-4.9567,0,0
6.5046,0.41685,7.0591,1.0852,1,3.2164,-4.8836,0,0
6.4844,0.42521,7.028,1.0838,1,3.2895,-4.8105,0,0
6.4581,0.43426,6.9887,1.0821,1,3.3626,-4.7374,0,0
6.4305,0.44345,6.9477,1.0804,1,3.4357,-4.6643,0,0
6.403,0.45264,6.9068,1.0787,1,3.5088,-4.5912,0,0
6.3758,0.46196,6.8662,1.0769,1,3.5819,-4.5181,0,0
6.3498,0.47162,6.8266,1.0751,1,3.655,-4.445,0,0
6.3238,0.48127,6.787,1.0732,1,3.7281,-4.3719,0,0
6.2977,0.49092,6.7474,1.0714,1,3.8012,-4.2988,0,0
6.2651,0.50157,6.6989,1.0692,1,3.8743,-4.2257,0,0
6.2296,0.51266,6.6465,1.0669,1,3.9474,-4.1526,0,0
6.1941,0.52374,6.5941,1.0645,1,4.0205,-4.0795,0,0
6.1584,0.53492,6.5414,1.0622,1,4.0936,-4.0064,0,0
6.1213,0.54681,6.486,1.0595,1,4.1667,-3.9333,0,0
6.0841,0.5587,6.4307,1.0569,1,4.2398,-3.8602,0,0
6.047,0.57059,6.3754,1.0543,1,4.3129,-3.7871,0,0
6.0067,0.58286,6.3161,1.0515,1,4.386,-3.714,0,0
5.9636,0.59549,6.2531,1.0485,1,4.4591,-3.6409,0,0
5.9204,0.60813,6.1901,1.0455,1,4.5322,-3.5678,0,0
5.8773,0.62076,6.1272,1.0425,1,4.6053,-3.4947,0,0
5.833,0.6341,6.0628,1.0393,1,4.6784,-3.4216,0,0
5.7887,0.64749,5.9982,1.0361,1,4.7515,-3.3485,0,0
5.7443,0.66089,5.9337,1.0329,1,4.8246,-3.2754,0,0
5.6965,0.67446,5.8651,1.0295,1,4.8977,-3.2023,0,0
5.6407,0.68844,5.7868,1.0258,1,4.9708,-3.1292,0,0
5.5849,0.70241,5.7085,1.022,1,5.0439,-3.0561,0,0
5.5291,0.71638,5.6303,1.0183,1,5.117,-2.983,0,0
5.4767,0.73066,5.5563,1.0144,1,5.1901,-2.9099,0,0
5.4259,0.74507,5.4844,1.0104,1,5.2632,-2.8368,0,0
5.3751,0.75948,5.4125,1.0065,1,5.3363,-2.7637,0,0
5.3244,0.77389,5.3405,1.0025,1,5.4094,-2.6906,0,0
5.2736,0.78831,5.2686,0.99859,1,5.4825,-2.6175,0,0
5.2228,0.80272,5.1967,0.99465,1,5.5556,-2.5444,0,0
5.172,0.81713,5.1247,0.9907,1,5.6287,-2.4713,0,0
5.1187,0.83196,5.0503,0.98651,1,5.7018,-2.3982,0,0
5.0611,0.84749,4.9717,0.9819,1,5.7749,-2.3251,0,0
5.0035,0.86301,4.893,0.9773,1,5.848,-2.252,0,0
4.9459,0.87854,4.8144,0.97269,1,5.9211,-2.1789,0,0
4.8883,0.89407,4.7357,0.96808,1,5.9942,-2.1058,0,0
4.8307,0.90959,4.6571,0.96347,1,6.0673,-2.0327,0,0
4.7731,0.92512,4.5784,0.95887,1,6.1404,-1.9596,0,0
4.7155,0.94066,4.4998,0.95425,1,6.2135,-1.8865,0,0
4.6554,0.95687,4.421,0.94921,1,6.2866,-1.8134,0,0
4.5954,0.97307,4.3422,0.94418,1,6.3597,-1.7403,0,0
4.5354,0.98928,4.2634,0.93915,1,6.4328,-1.6672,0,0
4.4754,1.0055,4.1846,0.93411,1,6.5059,-1.5941,0,0
4.4154,1.0217,4.1058,0.92908,1,6.579,-1.521,0,0
4.3554,1.0379,4.027,0.92404,1,6.6521,-1.4479,0,0
4.2954,1.0541,3.9482,0.91901,1,6.7252,-1.3748,0,0
4.2346,1.0707,3.8707,0.91374,1,6.7983,-1.3017,0,0
4.1734,1.0874,3.794,0.90834,1,6.8714,-1.2286,0,0
4.1122,1.1041,3.7172,0.90293,1,6.9445,-1.1555,0,0
4.051,1.1209,3.6405,0.89753,1,7.0176,-1.0824,0,0
3.9898,1.1376,3.5637,0.89213,1,7.0907,-1.0093,0,0
3.9286,1.1544,3.4869,0.88672,1,7.1638,-0.9362,0,0
3.8674,1.1711,3.4102,0.88132,1,7.2369,-0.8631,0,0
3.8067,1.188,3.3346,0.87586,1,7.31,-0.79,0,0
3.7486,1.2056,3.2644,0.87018,1,7.3831,-0.7169,0,0
3.6905,1.2231,3.1943,0.86449,1,7.4562,-0.6438,0,0
3.6324,1.2407,3.1241,0.85881,1,7.5293,-0.5707,0,0
3.5743,1.2582,3.0539,0.85312,1,7.6024,-0.4976,0,0
3.5162,1.2758,2.9837,0.84744,1,7.6755,-0.4245,0,0
3.4581,1.2933,2.9136,0.84175,1,7.7486,-0.3514,0,0
3.4,1.3109,2.8434,0.83607,1,7.8217,-0.2783,0,0
3.3392,1.3293,2.7724,0.83002,1,7.8948,-0.2052,0,0
3.2773,1.3482,2.7011,0.82379,1,7.9679,-0.1321,0,0
3.2153,1.3671,2.6298,0.81756,1,8.041,-0.059,0,0
3.1533,1.386,2.5585,0.81133,1,8.1141,0.0141,0,0
3.0928,1.4058,2.4906,0.80499,1,8.1872,0.0872,0,0
3.0323,1.4257,2.4231,0.79864,1,8.2603,0.1603,0,0
2.9719,1.4456,2.3556,0.79228,1,8.3334,0.2334,0,0
2.911,1.4657,2.2878,0.78584,1,8.4065,0.3065,0,0
2.8469,1.487,2.2186,0.77882,1,8.4796,0.3796,0,0
2.7828,1.5083,2.1493,0.7718,1,8.5527,0.4527,0,0
2.7186,1.5297,2.0801,0.76478,1,8.6258,0.5258,0,0
2.6575,1.5511,2.0145,0.75788,1,8.6989,0.5989,0,0
2.6024,1.5728,1.9563,0.75125,1,8.772,0.672,0,0
2.5473,1.5946,1.8981,0.74462,1,8.8451,0.7451,0,0
2.4923,1.6163,1.8398,0.73799,1,8.9182,0.8182,0,0
2.4308,1.6397,1.7768,0.73059,1,8.9913,0.8913,0,0
2.3636,1.6646,1.7097,0.72252,1,9.0644,0.9644,0,0
2.2965,1.6895,1.6425,0.71445,1,9.1375,1.0375,0,0
2.2294,1.7143,1.5753,0.70638,1,9.2106,1.1106,0,0
2.1784,1.7355,1.5255,0.70001,1,9.2837,1.1837,0,0
2.1341,1.7551,1.4828,0.69435,1,9.3568,1.2568,0,0
2.0899,1.7747,1.44,0.68869,1,9.4299,1.3299,0,0
2.0456,1.7942,1.3973,0.68302,1,9.503,1.403,0,0
2.0049,1.8129,1.359,0.67752,1,9.5761,1.4761,0,0
1.9647,1.8314,1.3212,0.67204,1,9.6492,1.5492,0,0
1.9245,1.8499,1.2834,0.66656,1,9.7223,1.6223,0,0
1.8844,1.8684,1.2458,0.66111,1,9.7954,1.6954,0,0
1.8519,1.8829,1.2163,0.6567,1,9.8685,1.7685,0,0
1.8206,1.8969,1.1879,0.65245,1,9.9416,1.8416,0,0
1.8017,1.9068,1.1706,0.64971,1,10.015,1.9147,0,0
1.7836,1.9163,1.1541,0.64706,1,10.088,1.9878,0,0
1.7699,1.9242,1.1414,0.6449,1,10.161,2.0609,0,0
1.7572,1.9307,1.13,0.64307,1,10.234,2.134,0,0
1.7483,1.9326,1.123,0.64233,1,10.307,2.2071,0,0
1.742,1.9342,1.1178,0.64166,1,10.38,2.2802,0,0
1.7423,1.9347,1.1171,0.64114,1,10.453,2.3533,0,0
1.7427,1.9353,1.1164,0.64062,1,10.526,2.4264,0,0
1.743,1.9358,1.1157,0.64011,1,10.599,2.4995,0,0
1.7453,1.9349,1.1173,0.64019,1,10.673,2.5726,0,0
1.7506,1.9317,1.1224,0.64113,1,10.746,2.6457,0,0
1.7558,1.9285,1.1274,0.64208,1,10.819,2.7188,0,0
1.7611,1.9253,1.1324,0.64302,1,10.892,2.7919,0,0
1.769,1.9203,1.14,0.64444,1,10.965,2.865,0,0
1.7794,1.9136,1.1502,0.64633,1,11.038,2.9381,0,0
1.7899,1.9069,1.1603,0.64821,1,11.111,3.0112,0,0
1.8004,1.9001,1.1704,0.6501,1,11.184,3.0843,0,0
1.8147,1.8923,1.184,0.65235,1,11.257,3.1574,0,0
1.8316,1.8838,1.1998,0.65484,1,11.33,3.2305,0,0
1.8485,1.8754,1.2156,0.65733,1,11.404,3.3036,0,0
1.8653,1.8669,1.2314,0.65982,1,11.477,3.3767,0,0
1.8822,1.8584,1.2472,0.66231,1,11.55,3.4498,0,0
1.8991,1.8499,1.263,0.6648,1,11.623,3.5229,0,0
1.916,1.8414,1.2788,0.66729,1,11.696,3.596,0,0
1.9328,1.833,1.2946,0.66978,1,11.769,3.6691,0,0
1.9472,1.8285,1.3074,0.67142,1,11.842,3.7422,0,0
1.9606,1.8253,1.3191,0.67277,1,11.915,3.8153,0,0
1.9741,1.8222,1.3308,0.67412,1,11.988,3.8884,0,0
1.9875,1.8191,1.3425,0.67548,1,12.062,3.9615,0,0
1.9869,1.8199,1.3421,0.67547,1,12.135,4.0346,0,0
1.9824,1.8218,1.3383,0.67509,1,12.208,4.1077,0,0
1.9778,1.8237,1.3344,0.6747,1,12.281,4.1808,0,0
1.9732,1.8257,1.3306,0.67431,1,12.354,4.2539,0,0
1.9563,1.8333,1.3146,0.67192,1,12.427,4.327,0,0
1.9365,1.8423,1.2959,0.66909,1,12.5,4.4001,0,0
1.9168,1.8512,1.2773,0.66625,1,12.573,4.4732,0,0
1.8971,1.8602,1.2586,0.66342,1,12.646,4.5463,0,0
1.8714,1.8733,1.235,0.6598,1,12.719,4.6194,0,0
1.8445,1.8872,1.2105,0.65602,1,12.792,4.6925,0,0
1.8176,1.9012,1.1859,0.65225,1,12.866,4.7656,0,0
1.7907,1.9151,1.1613,0.64847,1,12.939,4.8387,0,0
1.7476,1.9358,1.1232,0.64223,1,13.012,4.9118,0,0
1.7014,1.9577,1.0825,0.63553,1,13.085,4.9849,0,0
1.6552,1.9796,1.0419,0.62882,1,13.158,5.058,0,0
1.6091,2.0016,1.0012,0.62212,1,13.231,5.1311,0,0
1.572,2.023,0.96962,0.61648,1,13.304,5.2042,0,0
1.5369,2.0443,0.93985,0.61104,1,13.377,5.2773,0,0
1.5017,2.0655,0.91007,0.60561,1,13.45,5.3504,0,0
1.4665,2.0868,0.8803,0.60018,1,13.524,5.4235,0,0
1.429,2.1094,0.8496,0.59413,1,13.597,5.4966,0,0
1.3909,2.1323,0.8187,0.58794,1,13.67,5.5697,0,0
1.3528,2.1551,0.7878,0.58175,1,13.743,5.6428,0,0
1.3147,2.178,0.75689,0.57555,1,13.816,5.7159,0,0
1.2828,2.2001,0.73168,0.57008,1,13.889,5.789,0,0
1.2525,2.222,0.70807,0.5648,1,13.962,5.8621,0,0
1.2223,2.2439,0.68446,0.55953,1,14.035,5.9352,0,0
1.1921,2.2658,0.66085,0.55425,1,14.108,6.0083,0,0
1.1597,2.2899,0.63637,0.54828,1,14.181,6.0814,0,0
1.1267,2.3148,0.61158,0.54206,1,14.254,6.1545,0,0
1.0937,2.3396,0.58679,0.53585,1,14.328,6.2276,0,0
1.0606,2.3645,0.562,0.52963,1,14.401,6.3007,0,0
1.0338,2.3874,0.54226,0.52426,1,14.474,6.3738,0,0
1.01,2.4094,0.52496,0.5193,1,14.547,6.4469,0,0
0.98616,2.4314,0.50766,0.51433,1,14.62,6.52,0,0
0.96234,2.4534,0.49036,0.50937,1,14.693,6.5931,0,0
0.93986,2.4749,0.47444,0.50458,1,14.766,6.6662,0,0
0.91824,2.4961,0.45942,0.49989,1,14.839,6.7393,0,0
0.89662,2.5172,0.4444,0.49521,1,14.912,6.8124,0,0
0.875,2.5383,0.42939,0.49052,1,14.986,6.8855,0,0
0.85517,2.558,0.41595,0.48624,1,15.059,6.9586,0,0
0.83707,2.5761,0.40404,0.48236,1,15.132,7.0317,0,0
0.81897,2.5942,0.39213,0.47847,1,15.205,7.1048,0,0
0.80088,2.6124,0.38023,0.47458,1,15.278,7.1779,0,0
0.78437,2.6308,0.36942,0.47075,1,15.351,7.251,0,0
0.77015,2.6495,0.36019,0.46702,1,15.424,7.3241,0,0
0.75593,2.6683,0.35096,0.46328,1,15.497,7.3972,0,0
0.74171,2.6871,0.34172,0.45954,1,15.57,7.4703,0,0
0.72749,2.7059,0.33249,0.45581,1,15.643,7.5434,0,0
0.71327,2.7246,0.32326,0.45207,1,15.717,7.6165,0,0
0.69905,2.7434,0.31403,0.44833,1,15.79,7.6896,0,0
0.68483,2.7622,0.3048,0.4446,1,15.863,7.7627,0,0
0.67081,2.781,0.29581,0.44089,1,15.936,7.8358,0,0
0.65785,2.8003,0.28807,0.43731,1,16.009,7.9089,0,0
0.64489,2.8196,0.28033,0.43374,1,16.082,7.982,0,0
0.63193,2.8389,0.27259,0.43017,1,16.155,8.0551,0,0
0.61897,2.8581,0.26485,0.4266,1,16.228,8.1282,0,0
0.60601,2.8774,0.25711,0.42302,1,16.301,8.2013,0,0
0.59305,2.8967,0.24936,0.41945,1,16.374,8.2744,0,0
0.58009,2.9159,0.24162,0.41588,1,16.448,8.3475,0,0
0.56712,2.9352,0.23388,0.41231,1,16.521,8.4206,0,0
0.55699,2.9528,0.22813,0.40925,1,16.594,8.4937,0,0
0.54732,2.9701,0.22272,0.40629,1,16.667,8.5668,0,0
0.53766,2.9874,0.2173,0.40332,1,16.74,8.6399,0,0
0.528,3.0047,0.21188,0.40036,1,16.813,8.713,0,0
0.51833,3.0221,0.20647,0.39739,1,16.886,8.7861,0,0
0.50867,3.0394,0.20105,0.39442,1,16.959,8.8592,0,0
0.49901,3.0567,0.19564,0.39146,1,17.032,8.9323,0,0
0.48934,3.074,0.19022,0.38849,1,17.105,9.0054,0,0
0.48076,3.0904,0.18554,0.38578,1,17.179,9.0785,0,0
0.47326,3.1058,0.1816,0.38331,1,17.252,9.1516,0,0
0.46576,3.1212,0.17766,0.38084,1,17.325,9.2247,0,0
0.45827,3.1366,0.17372,0.37838,1,17.398,9.2978,0,0
0.45077,3.152,0.16977,0.37591,1,17.471,9.3709,0,0
0.44327,3.1674,0.16583,0.37344,1,17.544,9.444,0,0
0.43577,3.1828,0.16189,0.37098,1,17.617,9.5171,0,0
0.42827,3.1982,0.15795,0.36851,1,17.69,9.5902,0,0
0.42093,3.2135,0.1541,0.36607,1,17.763,9.6633,0,0
0.41516,3.228,0.15118,0.36391,1,17.836,9.7364,0,0
0.4094,3.2426,0.14827,0.36175,1,17.91,9.8095,0,0
0.40364,3.2571,0.14535,0.35959,1,17.983,9.8826,0,0
0.39788,3.2716,0.14244,0.35743,1,18.056,9.9557,0,0
0.39212,3.2861,0.13952,0.35526,1,18.129,10.029,0,0
0.38636,3.3007,0.13661,0.3531,1,18.202,10.102,0,0
0.3806,3.3152,0.13369,0.35094,1,18.275,10.175,0,0
0.37484,3.3297,0.13078,0.34878,1,18.348,10.248,0,0
0.36899,3.3452,0.12791,0.34656,1,18.421,10.321,0,0
0.36309,3.3612,0.12507,0.34429,1,18.494,10.394,0,0
0.35719,3.3771,0.12223,0.34203,1,18.567,10.467,0,0
0.35128,3.3931,0.11939,0.33977,1,18.64,10.54,0,0
0.34541,3.4099,0.11657,0.33744,1,18.714,10.614,0,0
0.33961,3.4281,0.11381,0.33496,1,18.787,10.687,0,0
0.33381,3.4463,0.11105,0.33248,1,18.86,10.76,0,0
0.328,3.4645,0.10829,0.33001,1,18.933,10.833,0,0
0.32217,3.4828,0.10552,0.32752,1,19.006,10.906,0,0
0.316,3.5029,0.10268,0.32487,1,19.079,10.979,0,0
0.30982,3.5231,0.099831,0.32221,1,19.152,11.052,0,0
0.30352,3.5449,0.096964,0.3194,1,19.225,11.125,0,0
0.29721,3.5669,0.094095,0.31657,1,19.298,11.198,0,0
0.29018,3.5924,0.090931,0.31334,1,19.372,11.271,0,0
0.28258,3.6207,0.087553,0.3098,1,19.445,11.345,0,0
0.27399,3.6521,0.083826,0.30594,1,19.518,11.418,0,0
0.26642,3.654,0.081386,0.30471,1,19.591,11.491,0,0
1.1374,0.40702,1.2795,1.125,1,19.664,11.564,0,0
1.1593,0.38864,1.2878,1.1109,1,19.737,11.637,0,0
1.1817,0.36262,1.3079,1.1068,1,19.81,11.71,0,0
1.1924,0.33901,1.321,1.1078,1,19.883,11.783,0,0
1.2006,0.31763,1.3317,1.1092,1,19.956,11.856,0,0
1.2059,0.29995,1.3396,1.1109,1,20.029,11.929,0,0
1.2112,0.28228,1.3476,1.1126,1,20.103,12.002,0,0
1.2152,0.26931,1.3538,1.114,1,20.176,12.076,0,0
1.2192,0.25637,1.3599,1.1154,1,20.249,12.149,0,0
1.2222,0.24655,1.3643,1.1163,1,20.322,12.222,0,0
1.225,0.23736,1.3684,1.1171,1,20.395,12.295,0,0
1.2275,0.22988,1.3716,1.1174,1,20.468,12.368,0,0
1.2298,0.22332,1.3742,1.1174,1,20.541,12.441,0,0
1.2319,0.21746,1.3767,1.1175,1,20.614,12.514,0,0
1.2337,0.21239,1.3792,1.1179,1,20.687,12.587,0,0
1.2356,0.20731,1.3818,1.1183,1,20.76,12.66,0,0
1.2374,0.20223,1.3843,1.1187,1,20.833,12.733,0,0
1.239,0.19725,1.3866,1.1191,1,20.907,12.807,0,0
1.2395,0.19298,1.3873,1.1192,1,20.98,12.88,0,0
1.2399,0.1887,1.388,1.1194,1,21.053,12.953,0,0
1.2403,0.18443,1.3887,1.1196,1,21.126,13.026,0,0
1.2408,0.18015,1.3893,1.1197,1,21.199,13.099,0,0
1.2412,0.17651,1.3898,1.1197,1,21.272,13.172,0,0
1.2415,0.1731,1.3901,1.1196,1,21.345,13.245,0,0
1.2419,0.16968,1.3904,1.1196,1,21.418,13.318,0,0
1.2423,0.16627,1.3907,1.1195,1,21.491,13.391,0,0
1.2427,0.16337,1.3909,1.1193,1,21.564,13.464,0,0
1.2433,0.16138,1.391,1.1188,1,21.638,13.538,0,0
1.244,0.15939,1.3912,1.1183,1,21.711,13.611,0,0
1.2446,0.15741,1.3913,1.1179,1,21.784,13.684,0,0
1.2452,0.15542,1.3914,1.1174,1,21.857,13.757,0,0
1.2468,0.15454,1.3924,1.1168,1,21.93,13.83,0,0
1.2485,0.15372,1.3934,1.1161,1,22.003,13.903,0,0
1.2554,0.15379,1.401,1.116,1,22.076,13.976,0,0
1.2642,0.15416,1.4109,1.1161,1,22.149,14.049,0,0
1.2743,0.15511,1.4221,1.116,1,22.222,14.122,0,0
1.2855,0.15655,1.4344,1.1159,1,22.295,14.195,0,0
1.2968,0.15799,1.4468,1.1157,1,22.369,14.269,0,0
1.308,0.15943,1.4591,1.1156,1,22.442,14.342,0,0
1.3192,0.16087,1.4714,1.1154,1,22.515,14.415,0,0
1.3305,0.16231,1.4838,1.1152,1,22.588,14.488,0,0
1.3417,0.16375,1.4961,1.1151,1,22.661,14.561,0,0
1.353,0.16519,1.5084,1.1149,1,22.734,14.634,0,0
1.3642,0.16664,1.5208,1.1148,1,22.807,14.707,0,0
1.3731,0.16939,1.5302,1.1145,1,22.88,14.78,0,0
1.3805,0.17286,1.5381,1.1141,1,22.953,14.853,0,0
1.388,0.17633,1.546,1.1138,1,23.027,14.926,0,0
1.3955,0.1798,1.5538,1.1135,1,23.1,15,0,0
1.403,0.18327,1.5617,1.1131,1,23.173,15.073,0,0
1.4105,0.18674,1.5696,1.1128,1,23.246,15.146,0,0
1.418,0.19021,1.5774,1.1125,1,23.319,15.219,0,0
1.4255,0.19368,1.5853,1.1121,1,23.392,15.292,0,0
1.433,0.19715,1.5932,1.1118,1,23.465,15.365,0,0
1.4359,0.2029,1.5956,1.1113,1,23.538,15.438,0,0
1.4367,0.20966,1.5956,1.1106,1,23.611,15.511,0,0
1.4375,0.21642,1.5956,1.11,1,23.684,15.584,0,0
1.4383,0.22318,1.5956,1.1093,1,23.757,15.657,0,0
1.4392,0.22994,1.5956,1.1087,1,23.831,15.731,0,0
1.44,0.2367,1.5956,1.1081,1,23.904,15.804,0,0
1.4408,0.24346,1.5956,1.1074,1,23.977,15.877,0,0
1.4416,0.25022,1.5956,1.1068,1,24.05,15.95,0,0
1.4425,0.25699,1.5956,1.1061,1,24.123,16.023,0,0
1.4412,0.26567,1.5927,1.1051,1,24.196,16.096,0,0
1.4391,0.27525,1.5885,1.1038,1,24.269,16.169,0,0
1.4369,0.28483,1.5843,1.1026,1,24.342,16.242,0,0
1.4347,0.29441,1.5801,1.1013,1,24.415,16.315,0,0
1.4325,0.30399,1.576,1.1001,1,24.489,16.389,0,0
1.4304,0.31357,1.5718,1.0988,1,24.562,16.462,0,0
1.4282,0.32315,1.5676,1.0976,1,24.635,16.535,0,0
1.426,0.33273,1.5634,1.0963,1,24.708,16.608,0,0
1.4238,0.34231,1.5592,1.0951,1,24.781,16.681,0,0
1.4215,0.35289,1.5543,1.0934,1,24.854,16.754,0,0
1.419,0.36411,1.549,1.0916,1,24.927,16.827,0,0
1.4165,0.37533,1.5437,1.0897,1,25,16.9,0,0
1.414,0.38656,1.5383,1.0879,1,25.073,16.973,0,0
1.4115,0.39778,1.533,1.086,1,25.146,17.046,0,0
1.409,0.409,1.5277,1.0841,1,25.219,17.119,0,0
1.4066,0.42023,1.5224,1.0823,1,25.293,17.193,0,0
1.4041,0.43145,1.517,1.0804,1,25.366,17.266,0,0
1.4016,0.44267,1.5117,1.0785,1,25.439,17.339,0,0
1.3984,0.45452,1.5053,1.0764,1,25.512,17.412,0,0
1.3946,0.46705,1.4976,1.0738,1,25.585,17.485,0,0
1.3907,0.47957,1.4899,1.0713,1,25.658,17.558,0,0
1.3868,0.4921,1.4823,1.0687,1,25.731,17.631,0,0
1.3829,0.50463,1.4746,1.0661,1,25.804,17.704,0,0
1.379,0.51716,1.467,1.0636,1,25.877,17.777,0,0
1.3752,0.52969,1.4593,1.061,1,25.951,17.851,0,0
1.3713,0.54222,1.4516,1.0585,1,26.024,17.924,0,0
1.3674,0.55475,1.444,1.0559,1,26.097,17.997,0,0
1.363,0.56747,1.4356,1.0532,1,26.17,18.07,0,0
1.3572,0.5807,1.4253,1.05,1,26.243,18.143,0,0
1.3513,0.59393,1.415,1.0469,1,26.316,18.216,0,0
1.3455,0.60716,1.4047,1.0437,1,26.389,18.289,0,0
1.3397,0.62039,1.3944,1.0405,1,26.462,18.362,0,0
1.3338,0.63361,1.3841,1.0374,1,26.535,18.435,0,0
1.328,0.64684,1.3738,1.0342,1,26.608,18.508,0,0
1.3222,0.66007,1.3635,1.031,1,26.681,18.581,0,0
1.3163,0.6733,1.3532,1.0279,1,26.755,18.655,0,0
1.3105,0.68653,1.3429,1.0247,1,26.828,18.728,0,0
1.3029,0.70004,1.3305,1.0211,1,26.901,18.801,0,0
1.2952,0.71354,1.3182,1.0174,1,26.974,18.874,0,0
1.2876,0.72705,1.3059,1.0138,1,27.047,18.947,0,0
1.28,0.74055,1.2936,1.0101,1,27.12,19.02,0,0
1.2724,0.75406,1.2813,1.0065,1,27.193,19.093,0,0
1.2648,0.76756,1.2689,1.0029,1,27.266,19.166,0,0
1.2571,0.78106,1.2566,0.99922,1,27.339,19.239,0,0
1.2495,0.79457,1.2443,0.99558,1,27.413,19.312,0,0
1.2419,0.80807,1.232,0.99194,1,27.486,19.386,0,0
1.2336,0.82143,1.2192,0.98815,1,27.559,19.459,0,0
1.2249,0.83472,1.2061,0.9843,1,27.632,19.532,0,0
1.2163,0.84801,1.1931,0.98044,1,27.705,19.605,0,0
1.2077,0.8613,1.1801,0.97658,1,27.778,19.678,0,0
1.199,0.87459,1.1671,0.97273,1,27.851,19.751,0,0
1.1904,0.88788,1.154,0.96887,1,27.924,19.824,0,0
1.1818,0.90117,1.141,0.96502,1,27.997,19.897,0,0
1.1731,0.91446,1.128,0.96116,1,28.07,19.97,0,0
1.1645,0.92775,1.115,0.9573,1,28.143,20.043,0,0
1.1558,0.94086,1.1021,0.95345,1,28.217,20.117,0,0
1.1469,0.95362,1.0894,0.94959,1,28.29,20.19,0,0
1.138,0.96638,1.0768,0.94573,1,28.363,20.263,0,0
1.1291,0.97914,1.0642,0.94187,1,28.436,20.336,0,0
1.1202,0.9919,1.0515,0.93801,1,28.509,20.409,0,0
1.1113,1.0047,1.0389,0.93416,1,28.582,20.482,0,0
1.1024,1.0174,1.0263,0.9303,1,28.655,20.555,0,0
1.0936,1.0302,1.0136,0.92644,1,28.728,20.628,0,0
1.0847,1.0429,1.001,0.92258,1,28.801,20.701,0,0
1.0758,1.0557,0.98838,0.91872,1,28.875,20.774,0,0
1.0672,1.0679,0.97662,0.91494,1,28.948,20.848,0,0
1.0586,1.0799,0.96499,0.91116,1,29.021,20.921,0,0
1.05,1.092,0.95335,0.90738,1,29.094,20.994,0,0
1.0414,1.1041,0.94172,0.90361,1,29.167,21.067,0,0
1.0328,1.1162,0.93009,0.89983,1,29.24,21.14,0,0
1.0242,1.1283,0.91845,0.89605,1,29.313,21.213,0,0
1.0156,1.1403,0.90682,0.89228,1,29.386,21.286,0,0
1.0071,1.1524,0.89518,0.8885,1,29.459,21.359,0,0
0.99847,1.1645,0.88355,0.88472,1,29.532,21.432,0,0
