"Density","Mach","Pressure","Temperature","vtkValidPointMask","arc_length","Points:0","Points:1","Points:2"
177.78,0.22549,8.6034e+06,197.41,1,0,-8.1,0,0
177.73,0.22629,8.5992e+06,197.39,1,0.0731,-8.0269,0,0
177.69,0.2271,8.595e+06,197.36,1,0.1462,-7.9538,0,0
177.64,0.22791,8.5907e+06,197.33,1,0.2193,-7.8807,0,0
177.59,0.22872,8.5865e+06,197.3,1,0.2924,-7.8076,0,0
177.54,0.22953,8.5823e+06,197.28,1,0.3655,-7.7345,0,0
177.49,0.23033,8.5781e+06,197.25,1,0.4386,-7.6614,0,0
177.44,0.23129,8.5734e+06,197.22,1,0.5117,-7.5883,0,0
177.35,0.233,8.5659e+06,197.17,1,0.5848,-7.5152,0,0
177.26,0.23471,8.5584e+06,197.12,1,0.6579,-7.4421,0,0
177.17,0.23641,8.5509e+06,197.07,1,0.731,-7.369,0,0
177.09,0.23812,8.5434e+06,197.02,1,0.8041,-7.2959,0,0
177,0.23982,8.5359e+06,196.97,1,0.8772,-7.2228,0,0
176.91,0.24153,8.5284e+06,196.92,1,0.9503,-7.1497,0,0
176.81,0.24358,8.5194e+06,196.86,1,1.0234,-7.0766,0,0
176.66,0.2464,8.507e+06,196.78,1,1.0965,-7.0035,0,0
176.51,0.24923,8.4946e+06,196.69,1,1.1696,-6.9304,0,0
176.37,0.25205,8.4822e+06,196.61,1,1.2427,-6.8573,0,0
176.22,0.25488,8.4699e+06,196.53,1,1.3158,-6.7842,0,0
176.08,0.2577,8.4575e+06,196.45,1,1.3889,-6.7111,0,0
175.93,0.26053,8.4451e+06,196.37,1,1.462,-6.638,0,0
175.76,0.26386,8.4303e+06,196.27,1,1.5351,-6.5649,0,0
175.54,0.26793,8.4122e+06,196.15,1,1.6082,-6.4918,0,0
175.33,0.27201,8.394e+06,196.03,1,1.6813,-6.4187,0,0
175.11,0.27608,8.3758e+06,195.9,1,1.7544,-6.3456,0,0
174.89,0.28016,8.3576e+06,195.78,1,1.8275,-6.2725,0,0
174.68,0.28423,8.3395e+06,195.66,1,1.9006,-6.1994,0,0
174.46,0.28831,8.3213e+06,195.54,1,1.9737,-6.1263,0,0
174.21,0.29299,8.2999e+06,195.4,1,2.0468,-6.0532,0,0
173.9,0.29847,8.2744e+06,195.22,1,2.1199,-5.9801,0,0
173.6,0.30394,8.2489e+06,195.05,1,2.193,-5.907,0,0
173.29,0.30941,8.2234e+06,194.88,1,2.2661,-5.8339,0,0
172.98,0.31488,8.1979e+06,194.7,1,2.3392,-5.7608,0,0
172.68,0.32035,8.1723e+06,194.53,1,2.4123,-5.6877,0,0
172.37,0.32582,8.1468e+06,194.36,1,2.4854,-5.6146,0,0
172.02,0.33193,8.1175e+06,194.15,1,2.5585,-5.5415,0,0
171.6,0.33891,8.083e+06,193.91,1,2.6316,-5.4684,0,0
171.18,0.34588,8.0485e+06,193.67,1,2.7047,-5.3953,0,0
170.76,0.35285,8.014e+06,193.43,1,2.7778,-5.3222,0,0
170.34,0.35982,7.9795e+06,193.19,1,2.8509,-5.2491,0,0
169.92,0.3668,7.945e+06,192.95,1,2.924,-5.176,0,0
169.51,0.37377,7.9105e+06,192.71,1,2.9971,-5.1029,0,0
169.03,0.38138,7.8717e+06,192.44,1,3.0702,-5.0298,0,0
168.47,0.39004,7.8261e+06,192.11,1,3.1433,-4.9567,0,0
167.9,0.39869,7.7805e+06,191.79,1,3.2164,-4.8836,0,0
167.34,0.40735,7.7349e+06,191.46,1,3.2895,-4.8105,0,0
166.78,0.41601,7.6893e+06,191.13,1,3.3626,-4.7374,0,0
166.21,0.42466,7.6437e+06,190.8,1,3.4357,-4.6643,0,0
165.65,0.43332,7.5981e+06,190.48,1,3.5088,-4.5912,0,0
165.04,0.44247,7.5491e+06,190.12,1,3.5819,-4.5181,0,0
164.3,0.45292,7.4908e+06,189.68,1,3.655,-4.445,0,0
163.56,0.46337,7.4326e+06,189.25,1,3.7281,-4.3719,0,0
162.82,0.47382,7.3744e+06,188.81,1,3.8012,-4.2988,0,0
162.08,0.48427,7.3162e+06,188.38,1,3.8743,-4.2257,0,0
161.34,0.49472,7.2579e+06,187.94,1,3.9474,-4.1526,0,0
160.6,0.50517,7.1997e+06,187.51,1,4.0205,-4.0795,0,0
159.84,0.51583,7.1399e+06,187.06,1,4.0936,-4.0064,0,0
158.9,0.52802,7.0688e+06,186.49,1,4.1667,-3.9333,0,0
157.96,0.54021,6.9976e+06,185.93,1,4.2398,-3.8602,0,0
157.03,0.5524,6.9264e+06,185.37,1,4.3129,-3.7871,0,0
156.09,0.56459,6.8552e+06,184.81,1,4.386,-3.714,0,0
155.15,0.57678,6.784e+06,184.25,1,4.4591,-3.6409,0,0
154.21,0.58896,6.7128e+06,183.69,1,4.5322,-3.5678,0,0
153.28,0.60115,6.6416e+06,183.12,1,4.6053,-3.4947,0,0
152.18,0.61472,6.5617e+06,182.45,1,4.6784,-3.4216,0,0
151.06,0.62841,6.481e+06,181.77,1,4.7515,-3.3485,0,0
149.95,0.6421,6.4003e+06,181.09,1,4.8246,-3.2754,0,0
148.83,0.65578,6.3196e+06,180.41,1,4.8977,-3.2023,0,0
147.72,0.66947,6.2389e+06,179.73,1,4.9708,-3.1292,0,0
146.61,0.68316,6.1582e+06,179.05,1,5.0439,-3.0561,0,0
145.49,0.69684,6.0775e+06,178.38,1,5.117,-2.983,0,0
144.28,0.71143,5.9932e+06,177.62,1,5.1901,-2.9099,0,0
143.02,0.72645,5.9071e+06,176.84,1,5.2632,-2.8368,0,0
141.77,0.74146,5.821e+06,176.05,1,5.3363,-2.7637,0,0
140.51,0.75647,5.7349e+06,175.27,1,5.4094,-2.6906,0,0
139.25,0.77148,5.6489e+06,174.48,1,5.4825,-2.6175,0,0
138,0.7865,5.5628e+06,173.7,1,5.5556,-2.5444,0,0
136.74,0.80151,5.4767e+06,172.91,1,5.6287,-2.4713,0,0
135.44,0.817,5.3899e+06,172.09,1,5.7018,-2.3982,0,0
134.07,0.83328,5.3019e+06,171.21,1,5.7749,-2.3251,0,0
132.71,0.84956,5.2139e+06,170.33,1,5.848,-2.252,0,0
131.34,0.86585,5.1259e+06,169.45,1,5.9211,-2.1789,0,0
129.97,0.88213,5.038e+06,168.57,1,5.9942,-2.1058,0,0
128.6,0.89841,4.95e+06,167.69,1,6.0673,-2.0327,0,0
127.23,0.91469,4.862e+06,166.8,1,6.1404,-1.9596,0,0
125.86,0.93101,4.774e+06,165.92,1,6.2135,-1.8865,0,0
124.41,0.94854,4.6868e+06,164.95,1,6.2866,-1.8134,0,0
122.95,0.96608,4.5996e+06,163.98,1,6.3597,-1.7403,0,0
121.5,0.98362,4.5124e+06,163,1,6.4328,-1.6672,0,0
120.04,1.0012,4.4252e+06,162.03,1,6.5059,-1.5941,0,0
118.59,1.0187,4.338e+06,161.06,1,6.579,-1.521,0,0
117.13,1.0362,4.2508e+06,160.09,1,6.6521,-1.4479,0,0
115.68,1.0538,4.1636e+06,159.12,1,6.7252,-1.3748,0,0
114.19,1.0722,4.0787e+06,158.1,1,6.7983,-1.3017,0,0
112.68,1.0911,3.9952e+06,157.05,1,6.8714,-1.2286,0,0
111.18,1.11,3.9117e+06,156,1,6.9445,-1.1555,0,0
109.67,1.1289,3.8281e+06,154.94,1,7.0176,-1.0824,0,0
108.17,1.1478,3.7446e+06,153.89,1,7.0907,-1.0093,0,0
106.66,1.1667,3.661e+06,152.84,1,7.1638,-0.9362,0,0
105.16,1.1857,3.5775e+06,151.79,1,7.2369,-0.8631,0,0
103.65,1.2048,3.4951e+06,150.73,1,7.31,-0.79,0,0
102.13,1.2248,3.4181e+06,149.64,1,7.3831,-0.7169,0,0
100.61,1.2449,3.3411e+06,148.54,1,7.4562,-0.6438,0,0
99.086,1.2649,3.2641e+06,147.45,1,7.5293,-0.5707,0,0
97.566,1.285,3.187e+06,146.35,1,7.6024,-0.4976,0,0
96.045,1.305,3.11e+06,145.25,1,7.6755,-0.4245,0,0
94.524,1.3251,3.033e+06,144.16,1,7.7486,-0.3514,0,0
93.004,1.3451,2.956e+06,143.06,1,7.8217,-0.2783,0,0
91.532,1.3651,2.886e+06,141.98,1,7.8948,-0.2052,0,0
90.082,1.3852,2.8193e+06,140.9,1,7.9679,-0.1321,0,0
88.633,1.4052,2.7526e+06,139.82,1,8.041,-0.059,0,0
87.184,1.4252,2.6859e+06,138.74,1,8.1141,0.0141,0,0
85.735,1.4453,2.6192e+06,137.66,1,8.1872,0.0872,0,0
84.286,1.4653,2.5525e+06,136.58,1,8.2603,0.1603,0,0
82.836,1.4853,2.4859e+06,135.5,1,8.3334,0.2334,0,0
81.414,1.5052,2.421e+06,134.43,1,8.4065,0.3065,0,0
80.171,1.5237,2.3683e+06,133.46,1,8.4796,0.3796,0,0
78.927,1.5422,2.3156e+06,132.48,1,8.5527,0.4527,0,0
77.684,1.5607,2.263e+06,131.51,1,8.6258,0.5258,0,0
76.441,1.5792,2.2103e+06,130.53,1,8.6989,0.5989,0,0
75.197,1.5977,2.1577e+06,129.56,1,8.772,0.672,0,0
73.954,1.6163,2.105e+06,128.58,1,8.8451,0.7451,0,0
72.711,1.6348,2.0523e+06,127.61,1,8.9182,0.8182,0,0
71.598,1.6519,2.0067e+06,126.71,1,8.9913,0.8913,0,0
70.599,1.6679,1.9673e+06,125.89,1,9.0644,0.9644,0,0
69.601,1.6838,1.9279e+06,125.06,1,9.1375,1.0375,0,0
68.602,1.6998,1.8885e+06,124.24,1,9.2106,1.1106,0,0
67.603,1.7157,1.8491e+06,123.41,1,9.2837,1.1837,0,0
66.605,1.7317,1.8097e+06,122.59,1,9.3568,1.2568,0,0
65.606,1.7476,1.7703e+06,121.76,1,9.4299,1.3299,0,0
64.607,1.7635,1.7309e+06,120.93,1,9.503,1.403,0,0
63.829,1.7766,1.7017e+06,120.26,1,9.5761,1.4761,0,0
63.081,1.7892,1.6738e+06,119.61,1,9.6492,1.5492,0,0
62.333,1.8018,1.6459e+06,118.96,1,9.7223,1.6223,0,0
61.585,1.8145,1.618e+06,118.32,1,9.7954,1.6954,0,0
60.837,1.8271,1.5901e+06,117.67,1,9.8685,1.7685,0,0
60.089,1.8398,1.5623e+06,117.02,1,9.9416,1.8416,0,0
59.34,1.8524,1.5344e+06,116.37,1,10.015,1.9147,0,0
58.628,1.8645,1.508e+06,115.74,1,10.088,1.9878,0,0
58.093,1.8739,1.4888e+06,115.26,1,10.161,2.0609,0,0
57.557,1.8834,1.4697e+06,114.77,1,10.234,2.134,0,0
57.022,1.8928,1.4506e+06,114.29,1,10.307,2.2071,0,0
56.487,1.9022,1.4315e+06,113.8,1,10.38,2.2802,0,0
55.951,1.9117,1.4123e+06,113.32,1,10.453,2.3533,0,0
55.416,1.9211,1.3932e+06,112.83,1,10.526,2.4264,0,0
54.88,1.9305,1.3741e+06,112.34,1,10.599,2.4995,0,0
54.399,1.9391,1.357e+06,111.9,1,10.673,2.5726,0,0
53.994,1.9466,1.343e+06,111.52,1,10.746,2.6457,0,0
53.589,1.954,1.329e+06,111.14,1,10.819,2.7188,0,0
53.184,1.9614,1.315e+06,110.76,1,10.892,2.7919,0,0
52.78,1.9688,1.301e+06,110.38,1,10.965,2.865,0,0
52.375,1.9762,1.287e+06,110,1,11.038,2.9381,0,0
51.97,1.9837,1.273e+06,109.62,1,11.111,3.0112,0,0
51.566,1.9911,1.2589e+06,109.24,1,11.184,3.0843,0,0
51.184,1.9983,1.246e+06,108.87,1,11.257,3.1574,0,0
50.817,2.0053,1.2337e+06,108.52,1,11.33,3.2305,0,0
50.451,2.0124,1.2214e+06,108.17,1,11.404,3.3036,0,0
50.084,2.0194,1.2092e+06,107.82,1,11.477,3.3767,0,0
49.717,2.0265,1.1969e+06,107.47,1,11.55,3.4498,0,0
49.351,2.0335,1.1846e+06,107.12,1,11.623,3.5229,0,0
48.984,2.0405,1.1724e+06,106.77,1,11.696,3.596,0,0
48.618,2.0476,1.1601e+06,106.42,1,11.769,3.6691,0,0
48.234,2.0553,1.1475e+06,106.04,1,11.842,3.7422,0,0
47.845,2.0631,1.1348e+06,105.65,1,11.915,3.8153,0,0
47.456,2.071,1.1222e+06,105.27,1,11.988,3.8884,0,0
47.067,2.0789,1.1095e+06,104.88,1,12.062,3.9615,0,0
46.678,2.0867,1.0968e+06,104.5,1,12.135,4.0346,0,0
46.289,2.0946,1.0842e+06,104.11,1,12.208,4.1077,0,0
45.9,2.1025,1.0715e+06,103.73,1,12.281,4.1808,0,0
45.511,2.1103,1.0588e+06,103.34,1,12.354,4.2539,0,0
45.096,2.1193,1.0456e+06,102.92,1,12.427,4.327,0,0
44.675,2.1284,1.0324e+06,102.49,1,12.5,4.4001,0,0
44.254,2.1376,1.0191e+06,102.05,1,12.573,4.4732,0,0
43.834,2.1467,1.0058e+06,101.62,1,12.646,4.5463,0,0
43.413,2.1559,9.9253e+05,101.19,1,12.719,4.6194,0,0
42.992,2.1651,9.7925e+05,100.76,1,12.792,4.6925,0,0
42.571,2.1742,9.6597e+05,100.32,1,12.866,4.7656,0,0
42.151,2.1834,9.5269e+05,99.892,1,12.939,4.8387,0,0
41.636,2.1951,9.3687e+05,99.35,1,13.012,4.9118,0,0
41.105,2.2073,9.2058e+05,98.787,1,13.085,4.9849,0,0
40.573,2.2195,9.0429e+05,98.224,1,13.158,5.058,0,0
40.042,2.2316,8.88e+05,97.661,1,13.231,5.1311,0,0
39.409,2.2465,8.6903e+05,96.974,1,13.304,5.2042,0,0
38.756,2.262,8.4952e+05,96.261,1,13.377,5.2773,0,0
38.103,2.2774,8.3e+05,95.549,1,13.45,5.3504,0,0
37.45,2.2929,8.1049e+05,94.836,1,13.524,5.4235,0,0
36.803,2.3089,7.9165e+05,94.112,1,13.597,5.4966,0,0
36.157,2.325,7.7295e+05,93.386,1,13.67,5.5697,0,0
35.512,2.3412,7.5426e+05,92.659,1,13.743,5.6428,0,0
34.867,2.3573,7.3557e+05,91.933,1,13.816,5.7159,0,0
34.253,2.3734,7.182e+05,91.223,1,13.889,5.789,0,0
33.649,2.3895,7.012e+05,90.517,1,13.962,5.8621,0,0
33.045,2.4055,6.8421e+05,89.812,1,14.035,5.9352,0,0
32.441,2.4216,6.6721e+05,89.106,1,14.108,6.0083,0,0
31.869,2.4376,6.5143e+05,88.418,1,14.181,6.0814,0,0
31.307,2.4535,6.3606e+05,87.737,1,14.254,6.1545,0,0
30.745,2.4694,6.207e+05,87.055,1,14.328,6.2276,0,0
30.184,2.4853,6.0534e+05,86.374,1,14.401,6.3007,0,0
29.649,2.5015,5.9101e+05,85.712,1,14.474,6.3738,0,0
29.127,2.5178,5.7719e+05,85.061,1,14.547,6.4469,0,0
28.606,2.5342,5.6337e+05,84.409,1,14.62,6.52,0,0
28.084,2.5506,5.4955e+05,83.758,1,14.693,6.5931,0,0
27.614,2.5649,5.3725e+05,83.157,1,14.766,6.6662,0,0
27.176,2.5781,5.2594e+05,82.588,1,14.839,6.7393,0,0
26.739,2.5912,5.1462e+05,82.019,1,14.912,6.8124,0,0
26.301,2.6043,5.0331e+05,81.451,1,14.986,6.8855,0,0
25.931,2.6158,4.9375e+05,80.954,1,15.059,6.9586,0,0
25.627,2.6256,4.859e+05,80.528,1,15.132,7.0317,0,0
25.323,2.6355,4.7804e+05,80.101,1,15.205,7.1048,0,0
25.019,2.6453,4.7018e+05,79.675,1,15.278,7.1779,0,0
24.71,2.656,4.6236e+05,79.242,1,15.351,7.251,0,0
24.395,2.6679,4.546e+05,78.8,1,15.424,7.3241,0,0
24.08,2.6798,4.4683e+05,78.358,1,15.497,7.3972,0,0
23.765,2.6917,4.3906e+05,77.916,1,15.57,7.4703,0,0
23.449,2.7036,4.313e+05,77.473,1,15.643,7.5434,0,0
23.134,2.7155,4.2353e+05,77.031,1,15.717,7.6165,0,0
22.819,2.7274,4.1576e+05,76.589,1,15.79,7.6896,0,0
22.504,2.7393,4.0799e+05,76.147,1,15.863,7.7627,0,0
22.188,2.7514,4.0027e+05,75.7,1,15.936,7.8358,0,0
21.87,2.7645,3.9278e+05,75.23,1,16.009,7.9089,0,0
21.551,2.7775,3.8528e+05,74.759,1,16.082,7.982,0,0
21.233,2.7906,3.7779e+05,74.289,1,16.155,8.0551,0,0
20.915,2.8036,3.703e+05,73.818,1,16.228,8.1282,0,0
20.596,2.8166,3.628e+05,73.348,1,16.301,8.2013,0,0
20.278,2.8297,3.5531e+05,72.878,1,16.374,8.2744,0,0
19.96,2.8427,3.4781e+05,72.407,1,16.448,8.3475,0,0
19.641,2.8558,3.4032e+05,71.937,1,16.521,8.4206,0,0
19.34,2.8693,3.3351e+05,71.469,1,16.594,8.4937,0,0
19.041,2.8829,3.2682e+05,71.001,1,16.667,8.5668,0,0
18.743,2.8966,3.2013e+05,70.534,1,16.74,8.6399,0,0
18.444,2.9102,3.1344e+05,70.067,1,16.813,8.713,0,0
18.146,2.9238,3.0675e+05,69.599,1,16.886,8.7861,0,0
17.847,2.9374,3.0006e+05,69.132,1,16.959,8.8592,0,0
17.549,2.9511,2.9337e+05,68.665,1,17.032,8.9323,0,0
17.25,2.9647,2.8668e+05,68.197,1,17.105,9.0054,0,0
16.969,2.9782,2.8051e+05,67.742,1,17.179,9.0785,0,0
16.706,2.9915,2.7487e+05,67.299,1,17.252,9.1516,0,0
16.442,3.0049,2.6923e+05,66.855,1,17.325,9.2247,0,0
16.179,3.0182,2.6359e+05,66.412,1,17.398,9.2978,0,0
15.915,3.0315,2.5795e+05,65.968,1,17.471,9.3709,0,0
15.652,3.0449,2.5231e+05,65.525,1,17.544,9.444,0,0
15.388,3.0582,2.4667e+05,65.082,1,17.617,9.5171,0,0
15.125,3.0716,2.4103e+05,64.638,1,17.69,9.5902,0,0
14.865,3.0849,2.3549e+05,64.199,1,17.763,9.6633,0,0
14.647,3.0979,2.31e+05,63.801,1,17.836,9.7364,0,0
14.428,3.1109,2.2651e+05,63.403,1,17.91,9.8095,0,0
14.21,3.1239,2.2203e+05,63.005,1,17.983,9.8826,0,0
13.992,3.1369,2.1754e+05,62.607,1,18.056,9.9557,0,0
13.773,3.1499,2.1306e+05,62.209,1,18.129,10.029,0,0
13.555,3.163,2.0857e+05,61.811,1,18.202,10.102,0,0
13.336,3.176,2.0408e+05,61.413,1,18.275,10.175,0,0
13.118,3.189,1.996e+05,61.015,1,18.348,10.248,0,0
12.899,3.2031,1.9527e+05,60.608,1,18.421,10.321,0,0
12.681,3.218,1.9105e+05,60.194,1,18.494,10.394,0,0
12.463,3.2328,1.8683e+05,59.781,1,18.567,10.467,0,0
12.245,3.2477,1.826e+05,59.368,1,18.64,10.54,0,0
12.026,3.2626,1.7838e+05,58.955,1,18.714,10.614,0,0
11.808,3.2774,1.7416e+05,58.542,1,18.787,10.687,0,0
11.59,3.2923,1.6994e+05,58.128,1,18.86,10.76,0,0
11.371,3.3071,1.6571e+05,57.715,1,18.933,10.833,0,0
11.152,3.3224,1.6147e+05,57.296,1,19.006,10.906,0,0
10.914,3.3432,1.5699e+05,56.795,1,19.079,10.979,0,0
10.677,3.364,1.5251e+05,56.294,1,19.152,11.052,0,0
10.44,3.3848,1.4803e+05,55.793,1,19.225,11.125,0,0
10.202,3.4056,1.4355e+05,55.292,1,19.298,11.198,0,0
9.9897,3.4217,1.3956e+05,54.802,1,19.372,11.271,0,0
9.7844,3.4366,1.3571e+05,54.315,1,19.445,11.345,0,0
9.5792,3.4514,1.3186e+05,53.828,1,19.518,11.418,0,0
9.374,3.4662,1.2801e+05,53.341,1,19.591,11.491,0,0
9.2617,3.4736,1.2593e+05,53.082,1,19.664,11.564,0,0
9.2505,3.4729,1.2576e+05,53.069,1,19.737,11.637,0,0
9.2393,3.4722,1.2559e+05,53.056,1,19.81,11.71,0,0
9.228,3.4716,1.2543e+05,53.043,1,19.883,11.783,0,0
9.235,3.4681,1.2563e+05,53.084,1,19.956,11.856,0,0
9.3414,3.4497,1.2786e+05,53.422,1,20.029,11.929,0,0
9.4478,3.4312,1.3008e+05,53.761,1,20.103,12.002,0,0
9.5543,3.4128,1.3231e+05,54.099,1,20.176,12.076,0,0
9.6607,3.3943,1.3454e+05,54.437,1,20.249,12.149,0,0
10.525,3.2215,1.6161e+05,58.455,1,20.322,12.222,0,0
11.544,3.0171,1.9377e+05,63.227,1,20.395,12.295,0,0
12.563,2.8126,2.2593e+05,67.998,1,20.468,12.368,0,0
13.583,2.6082,2.5809e+05,72.77,1,20.541,12.441,0,0
16.197,2.3526,3.6858e+05,81.34,1,20.614,12.514,0,0
20.566,2.0407,5.6519e+05,94.087,1,20.687,12.587,0,0
24.935,1.7288,7.6181e+05,106.83,1,20.76,12.66,0,0
29.304,1.4169,9.5843e+05,119.58,1,20.833,12.733,0,0
33.789,1.1321,1.1633e+06,131.52,1,20.907,12.807,0,0
39.103,1.0408,1.4268e+06,137.71,1,20.98,12.88,0,0
44.418,0.94954,1.6904e+06,143.91,1,21.053,12.953,0,0
49.732,0.85827,1.9539e+06,150.1,1,21.126,13.026,0,0
55.046,0.767,2.2175e+06,156.29,1,21.199,13.099,0,0
58.399,0.74193,2.3705e+06,158.63,1,21.272,13.172,0,0
61.063,0.7401,2.4847e+06,159.62,1,21.345,13.245,0,0
63.727,0.73827,2.5989e+06,160.61,1,21.418,13.318,0,0
66.392,0.73645,2.7131e+06,161.6,1,21.491,13.391,0,0
68.14,0.73778,2.7815e+06,161.97,1,21.564,13.464,0,0
68.242,0.74478,2.7675e+06,161.24,1,21.638,13.538,0,0
68.345,0.75178,2.7535e+06,160.51,1,21.711,13.611,0,0
68.448,0.75878,2.7395e+06,159.77,1,21.784,13.684,0,0
68.551,0.76577,2.7256e+06,159.04,1,21.857,13.757,0,0
67.772,0.7771,2.6821e+06,158.28,1,21.93,13.83,0,0
66.943,0.78868,2.6369e+06,157.52,1,22.003,13.903,0,0
66.114,0.80026,2.5918e+06,156.75,1,22.076,13.976,0,0
65.285,0.81184,2.5466e+06,155.99,1,22.149,14.049,0,0
64.819,0.82206,2.5156e+06,155.31,1,22.222,14.122,0,0
64.67,0.83108,2.497e+06,154.68,1,22.295,14.195,0,0
64.521,0.8401,2.4784e+06,154.06,1,22.369,14.269,0,0
64.373,0.84912,2.4598e+06,153.44,1,22.442,14.342,0,0
64.224,0.85814,2.4412e+06,152.81,1,22.515,14.415,0,0
64.075,0.86716,2.4226e+06,152.19,1,22.588,14.488,0,0
63.926,0.87618,2.4039e+06,151.57,1,22.661,14.561,0,0
63.778,0.88521,2.3853e+06,150.95,1,22.734,14.634,0,0
63.629,0.89423,2.3667e+06,150.32,1,22.807,14.707,0,0
63.558,0.90111,2.3546e+06,149.88,1,22.88,14.78,0,0
63.531,0.9068,2.3462e+06,149.53,1,22.953,14.853,0,0
63.503,0.9125,2.3377e+06,149.19,1,23.027,14.926,0,0
63.476,0.9182,2.3292e+06,148.84,1,23.1,15,0,0
63.448,0.92389,2.3208e+06,148.49,1,23.173,15.073,0,0
63.421,0.92959,2.3123e+06,148.15,1,23.246,15.146,0,0
63.393,0.93529,2.3038e+06,147.8,1,23.319,15.219,0,0
63.366,0.94099,2.2954e+06,147.45,1,23.392,15.292,0,0
63.338,0.94668,2.2869e+06,147.11,1,23.465,15.365,0,0
63.326,0.95073,2.2825e+06,146.93,1,23.538,15.438,0,0
63.322,0.95404,2.28e+06,146.82,1,23.611,15.511,0,0
63.317,0.95735,2.2775e+06,146.71,1,23.684,15.584,0,0
63.312,0.96067,2.275e+06,146.6,1,23.757,15.657,0,0
63.307,0.96398,2.2725e+06,146.49,1,23.831,15.731,0,0
63.303,0.96729,2.27e+06,146.39,1,23.904,15.804,0,0
63.298,0.97061,2.2674e+06,146.28,1,23.977,15.877,0,0
63.293,0.97392,2.2649e+06,146.17,1,24.05,15.95,0,0
63.289,0.97723,2.2624e+06,146.06,1,24.123,16.023,0,0
63.285,0.98065,2.2599e+06,145.95,1,24.196,16.096,0,0
63.283,0.98412,2.2575e+06,145.84,1,24.269,16.169,0,0
63.281,0.98758,2.255e+06,145.73,1,24.342,16.242,0,0
63.278,0.99105,2.2525e+06,145.63,1,24.415,16.315,0,0
63.276,0.99451,2.2501e+06,145.52,1,24.489,16.389,0,0
63.273,0.99798,2.2476e+06,145.41,1,24.562,16.462,0,0
63.271,1.0014,2.2451e+06,145.3,1,24.635,16.535,0,0
63.268,1.0049,2.2426e+06,145.19,1,24.708,16.608,0,0
63.266,1.0084,2.2402e+06,145.08,1,24.781,16.681,0,0
63.217,1.0127,2.2353e+06,144.92,1,24.854,16.754,0,0
63.138,1.0176,2.229e+06,144.74,1,24.927,16.827,0,0
63.059,1.0224,2.2226e+06,144.55,1,25,16.9,0,0
62.98,1.0273,2.2163e+06,144.36,1,25.073,16.973,0,0
62.901,1.0321,2.2099e+06,144.17,1,25.146,17.046,0,0
62.822,1.037,2.2036e+06,143.99,1,25.219,17.119,0,0
62.743,1.0418,2.1972e+06,143.8,1,25.293,17.193,0,0
62.665,1.0467,2.1908e+06,143.61,1,25.366,17.266,0,0
62.586,1.0516,2.1845e+06,143.42,1,25.439,17.339,0,0
62.444,1.0573,2.1754e+06,143.19,1,25.512,17.412,0,0
62.232,1.0641,2.1634e+06,142.9,1,25.585,17.485,0,0
62.021,1.0709,2.1514e+06,142.62,1,25.658,17.558,0,0
61.809,1.0777,2.1394e+06,142.33,1,25.731,17.631,0,0
61.597,1.0845,2.1274e+06,142.05,1,25.804,17.704,0,0
61.386,1.0913,2.1154e+06,141.76,1,25.877,17.777,0,0
61.174,1.0981,2.1034e+06,141.47,1,25.951,17.851,0,0
60.963,1.1049,2.0914e+06,141.19,1,26.024,17.924,0,0
60.751,1.1117,2.0794e+06,140.9,1,26.097,17.997,0,0
60.499,1.1191,2.0657e+06,140.58,1,26.17,18.07,0,0
60.143,1.128,2.0478e+06,140.18,1,26.243,18.143,0,0
59.787,1.137,2.0298e+06,139.77,1,26.316,18.216,0,0
59.431,1.1459,2.0119e+06,139.37,1,26.389,18.289,0,0
59.075,1.1548,1.994e+06,138.96,1,26.462,18.362,0,0
58.719,1.1638,1.9761e+06,138.56,1,26.535,18.435,0,0
58.363,1.1727,1.9581e+06,138.15,1,26.608,18.508,0,0
58.007,1.1816,1.9402e+06,137.75,1,26.681,18.581,0,0
57.651,1.1905,1.9223e+06,137.34,1,26.755,18.655,0,0
57.293,1.1995,1.9043e+06,136.93,1,26.828,18.728,0,0
56.827,1.2103,1.8824e+06,136.42,1,26.901,18.801,0,0
56.361,1.2211,1.8605e+06,135.91,1,26.974,18.874,0,0
55.895,1.232,1.8386e+06,135.4,1,27.047,18.947,0,0
55.429,1.2428,1.8167e+06,134.89,1,27.12,19.02,0,0
54.963,1.2536,1.7948e+06,134.38,1,27.193,19.093,0,0
54.497,1.2644,1.7729e+06,133.87,1,27.266,19.166,0,0
54.031,1.2753,1.7511e+06,133.36,1,27.339,19.239,0,0
53.565,1.2861,1.7292e+06,132.85,1,27.413,19.312,0,0
53.099,1.2969,1.7073e+06,132.34,1,27.486,19.386,0,0
52.598,1.3087,1.6845e+06,131.77,1,27.559,19.459,0,0
52.083,1.3209,1.6612e+06,131.18,1,27.632,19.532,0,0
51.568,1.3331,1.638e+06,130.58,1,27.705,19.605,0,0
51.052,1.3453,1.6148e+06,129.99,1,27.778,19.678,0,0
50.537,1.3575,1.5916e+06,129.4,1,27.851,19.751,0,0
