"Density","Mach","Pressure","Temperature","vtkValidPointMask","arc_length","Points:0","Points:1","Points:2"
0.3752,3.3545,0.12957,0.34533,1,0,10,0,0
0.37406,3.3538,0.1292,0.34539,1,0.016,10,0.016,0
0.37364,3.3522,0.12915,0.34564,1,0.032,10,0.032,0
0.37348,3.3507,0.12918,0.34587,1,0.048,10,0.048,0
0.37335,3.3497,0.12919,0.34602,1,0.064,10,0.064,0
0.37323,3.3489,0.12918,0.34612,1,0.08,10,0.08,0
0.37311,3.3484,0.12917,0.34619,1,0.096,10,0.096,0
0.373,3.3481,0.12914,0.34622,1,0.112,10,0.112,0
0.37289,3.348,0.12911,0.34624,1,0.128,10,0.128,0
0.37278,3.348,0.12907,0.34623,1,0.144,10,0.144,0
0.37268,3.3481,0.12902,0.34621,1,0.16,10,0.16,0
0.37259,3.3484,0.12898,0.34618,1,0.176,10,0.176,0
0.37251,3.3487,0.12894,0.34613,1,0.192,10,0.192,0
0.37244,3.349,0.1289,0.34609,1,0.208,10,0.208,0
0.37235,3.3494,0.12885,0.34604,1,0.224,10,0.224,0
0.37225,3.3499,0.1288,0.34599,1,0.24,10,0.24,0
0.37215,3.3503,0.12874,0.34594,1,0.256,10,0.256,0
0.37205,3.3507,0.12869,0.34588,1,0.272,10,0.272,0
0.37191,3.3512,0.12862,0.34582,1,0.288,10,0.288,0
0.37177,3.3518,0.12854,0.34575,1,0.304,10,0.304,0
0.37164,3.3523,0.12847,0.34569,1,0.32,10,0.32,0
0.3715,3.3528,0.1284,0.34562,1,0.336,10,0.336,0
0.37136,3.3534,0.12833,0.34556,1,0.352,10,0.352,0
0.37121,3.3539,0.12825,0.34549,1,0.368,10,0.368,0
0.37107,3.3544,0.12818,0.34543,1,0.384,10,0.384,0
0.37093,3.355,0.12811,0.34536,1,0.4,10,0.4,0
0.3708,3.3555,0.12804,0.3453,1,0.416,10,0.416,0
0.37067,3.356,0.12797,0.34524,1,0.432,10,0.432,0
0.37054,3.3565,0.12791,0.34518,1,0.448,10,0.448,0
0.37042,3.357,0.12784,0.34513,1,0.464,10,0.464,0
0.37033,3.3574,0.12779,0.34508,1,0.48,10,0.48,0
0.37026,3.3578,0.12775,0.34504,1,0.496,10,0.496,0
0.37019,3.3581,0.12772,0.345,1,0.512,10,0.512,0
0.37012,3.3585,0.12768,0.34496,1,0.528,10,0.528,0
0.37011,3.3586,0.12767,0.34495,1,0.544,10,0.544,0
0.37011,3.3587,0.12767,0.34494,1,0.56,10,0.56,0
0.37013,3.3588,0.12767,0.34495,1,0.576,10,0.576,0
0.37015,3.3588,0.12769,0.34495,1,0.592,10,0.592,0
0.3702,3.3588,0.1277,0.34496,1,0.608,10,0.608,0
0.37024,3.3588,0.12772,0.34497,1,0.624,10,0.624,0
0.37027,3.3588,0.12773,0.34497,1,0.64,10,0.64,0
0.37031,3.3589,0.12774,0.34497,1,0.656,10,0.656,0
0.37031,3.359,0.12774,0.34496,1,0.672,10,0.672,0
0.37032,3.3592,0.12774,0.34495,1,0.688,10,0.688,0
0.37029,3.3594,0.12772,0.34492,1,0.704,10,0.704,0
0.37025,3.3597,0.1277,0.34489,1,0.72,10,0.72,0
0.37021,3.36,0.12767,0.34486,1,0.736,10,0.736,0
0.37011,3.3604,0.12762,0.34481,1,0.752,10,0.752,0
0.36999,3.3609,0.12755,0.34475,1,0.768,10,0.768,0
0.36989,3.3613,0.1275,0.3447,1,0.784,10,0.784,0
0.36979,3.3617,0.12745,0.34465,1,0.8,10,0.8,0
0.36964,3.3623,0.12737,0.34458,1,0.816,10,0.816,0
0.36948,3.3628,0.12729,0.3445,1,0.832,10,0.832,0
0.36931,3.3634,0.1272,0.34442,1,0.848,10,0.848,0
0.36912,3.3641,0.1271,0.34434,1,0.864,10,0.864,0
0.36891,3.3647,0.127,0.34425,1,0.88,10,0.88,0
0.36871,3.3654,0.1269,0.34416,1,0.896,10,0.896,0
0.3685,3.366,0.1268,0.34408,1,0.912,10,0.912,0
0.36828,3.3667,0.12669,0.34398,1,0.928,10,0.928,0
0.36807,3.3674,0.12658,0.34389,1,0.944,10,0.944,0
0.36781,3.3682,0.12645,0.34378,1,0.96,10,0.96,0
0.36755,3.369,0.12632,0.34367,1,0.976,10,0.976,0
0.36729,3.3698,0.12619,0.34356,1,0.992,10,0.992,0
0.36703,3.3706,0.12606,0.34345,1,1.008,10,1.008,0
0.36677,3.3715,0.12593,0.34334,1,1.024,10,1.024,0
0.36651,3.3723,0.1258,0.34323,1,1.04,10,1.04,0
0.36625,3.3731,0.12567,0.34312,1,1.056,10,1.056,0
0.36599,3.3739,0.12554,0.34301,1,1.072,10,1.072,0
0.36569,3.3748,0.12539,0.34289,1,1.088,10,1.088,0
0.36538,3.3757,0.12524,0.34276,1,1.104,10,1.104,0
0.36507,3.3767,0.12508,0.34263,1,1.12,10,1.12,0
0.36476,3.3776,0.12493,0.3425,1,1.136,10,1.136,0
0.36444,3.3786,0.12477,0.34236,1,1.152,10,1.152,0
0.36413,3.3796,0.12462,0.34223,1,1.168,10,1.168,0
0.3638,3.3805,0.12446,0.3421,1,1.184,10,1.184,0
0.36343,3.3816,0.12427,0.34195,1,1.2,10,1.2,0
0.36305,3.3827,0.12409,0.3418,1,1.216,10,1.216,0
0.36267,3.3838,0.12391,0.34165,1,1.232,10,1.232,0
0.36223,3.385,0.1237,0.34149,1,1.248,10,1.248,0
0.36173,3.3864,0.12346,0.3413,1,1.264,10,1.264,0
0.36123,3.3878,0.12322,0.34111,1,1.28,10,1.28,0
0.36074,3.3892,0.12299,0.34093,1,1.296,10,1.296,0
0.36012,3.391,0.12269,0.34069,1,1.312,10,1.312,0
0.35945,3.3929,0.12237,0.34043,1,1.328,10,1.328,0
0.35879,3.3949,0.12205,0.34017,1,1.344,10,1.344,0
0.35792,3.3974,0.12164,0.33985,1,1.36,10,1.36,0
0.35693,3.4004,0.12117,0.33948,1,1.376,10,1.376,0
0.35587,3.4035,0.12067,0.33907,1,1.392,10,1.392,0
0.35458,3.4072,0.12006,0.33859,1,1.408,10,1.408,0
0.35329,3.4111,0.11944,0.33807,1,1.424,10,1.424,0
0.35235,3.414,0.11897,0.33765,1,1.44,10,1.44,0
0.35158,3.4167,0.11856,0.33723,1,1.456,10,1.456,0
0.35082,3.4196,0.11814,0.33676,1,1.472,10,1.472,0
0.35772,3.3973,0.12134,0.33914,1,1.488,10,1.488,0
0.36641,3.3678,0.12545,0.34233,1,1.504,10,1.504,0
0.40892,3.2279,0.14965,0.36262,1,1.52,10,1.52,0
0.46339,3.0533,0.18126,0.3888,1,1.536,10,1.536,0
0.54537,2.8682,0.23237,0.42197,1,1.552,10,1.552,0
0.64279,2.6848,0.29471,0.4581,1,1.568,10,1.568,0
0.72284,2.5968,0.34694,0.47856,1,1.584,10,1.584,0
0.7813,2.5366,0.38498,0.4925,1,1.6,10,1.6,0
0.81878,2.5046,0.40941,0.49994,1,1.616,10,1.616,0
0.83547,2.4912,0.42005,0.50274,1,1.632,10,1.632,0
0.8475,2.4827,0.42741,0.50432,1,1.648,10,1.648,0
0.85199,2.4834,0.42904,0.50358,1,1.664,10,1.664,0
0.85552,2.4854,0.42998,0.50259,1,1.68,10,1.68,0
0.85718,2.4891,0.42979,0.5014,1,1.696,10,1.696,0
0.85796,2.4917,0.42933,0.50041,1,1.712,10,1.712,0
0.85676,2.4927,0.42781,0.49934,1,1.728,10,1.728,0
0.85318,2.4951,0.42472,0.4978,1,1.744,10,1.744,0
0.8473,2.4994,0.4203,0.49604,1,1.76,10,1.76,0
0.84017,2.5052,0.41522,0.4942,1,1.776,10,1.776,0
0.83317,2.5108,0.41041,0.49259,1,1.792,10,1.792,0
0.82735,2.5143,0.40671,0.49158,1,1.808,10,1.808,0
0.8233,2.515,0.40447,0.49128,1,1.824,10,1.824,0
0.82111,2.5138,0.40357,0.49149,1,1.84,10,1.84,0
0.82045,2.5112,0.40374,0.49209,1,1.856,10,1.856,0
0.82106,2.508,0.40471,0.49291,1,1.872,10,1.872,0
0.82299,2.5049,0.40642,0.49383,1,1.888,10,1.888,0
0.82571,2.5021,0.40853,0.49476,1,1.904,10,1.904,0
0.82898,2.4993,0.41097,0.49576,1,1.92,10,1.92,0
0.83328,2.4963,0.41397,0.49679,1,1.936,10,1.936,0
0.83737,2.4937,0.4168,0.49774,1,1.952,10,1.952,0
0.84212,2.4908,0.41995,0.49867,1,1.968,10,1.968,0
0.84746,2.4878,0.42338,0.49958,1,1.984,10,1.984,0
0.85278,2.4847,0.42681,0.50048,1,2,10,2,0
0.85819,2.4816,0.43025,0.50135,1,2.016,10,2.016,0
0.86404,2.4778,0.43397,0.50225,1,2.032,10,2.032,0
0.86989,2.4739,0.43768,0.50314,1,2.048,10,2.048,0
0.87545,2.4692,0.44138,0.50417,1,2.064,10,2.064,0
0.8813,2.4639,0.44533,0.50531,1,2.08,10,2.08,0
0.88723,2.4577,0.44951,0.50664,1,2.096,10,2.096,0
0.89334,2.4509,0.45388,0.50807,1,2.112,10,2.112,0
0.89978,2.4434,0.45856,0.50963,1,2.128,10,2.128,0
0.90617,2.4359,0.46321,0.51117,1,2.144,10,2.144,0
0.91288,2.4281,0.46812,0.51277,1,2.16,10,2.16,0
0.91964,2.4204,0.47306,0.51436,1,2.176,10,2.176,0
0.92628,2.4127,0.47791,0.51592,1,2.192,10,2.192,0
0.93304,2.4051,0.48285,0.51749,1,2.208,10,2.208,0
0.94001,2.3976,0.48797,0.51907,1,2.224,10,2.224,0
0.94699,2.3902,0.49308,0.52065,1,2.24,10,2.24,0
0.95394,2.3827,0.49818,0.52222,1,2.256,10,2.256,0
0.96139,2.3756,0.50359,0.52377,1,2.272,10,2.272,0
0.96915,2.3685,0.5092,0.52532,1,2.288,10,2.288,0
0.9769,2.3614,0.5148,0.52688,1,2.304,10,2.304,0
0.98465,2.3543,0.52041,0.52844,1,2.32,10,2.32,0
0.99235,2.3474,0.52596,0.52998,1,2.336,10,2.336,0
1.0002,2.3411,0.53157,0.53141,1,2.352,10,2.352,0
1.0082,2.3354,0.53723,0.53277,1,2.368,10,2.368,0
1.0164,2.3295,0.54302,0.53416,1,2.384,10,2.384,0
1.0251,2.3231,0.54922,0.53564,1,2.4,10,2.4,0
1.0339,2.3168,0.55543,0.53712,1,2.416,10,2.416,0
1.0426,2.3105,0.56164,0.5386,1,2.432,10,2.432,0
1.0513,2.3042,0.56785,0.54008,1,2.448,10,2.448,0
1.0602,2.2991,0.57407,0.54134,1,2.464,10,2.464,0
1.0693,2.2943,0.5803,0.54252,1,2.48,10,2.48,0
1.0783,2.2896,0.58653,0.54371,1,2.496,10,2.496,0
1.0875,2.2846,0.59285,0.54495,1,2.512,10,2.512,0
1.0967,2.2795,0.59922,0.54621,1,2.528,10,2.528,0
1.1059,2.2745,0.60558,0.54747,1,2.544,10,2.544,0
1.1151,2.2694,0.61194,0.54873,1,2.56,10,2.56,0
1.1243,2.265,0.61822,0.5498,1,2.576,10,2.576,0
1.1335,2.2608,0.62448,0.55083,1,2.592,10,2.592,0
1.1427,2.2566,0.63074,0.55186,1,2.608,10,2.608,0
1.1519,2.2524,0.637,0.55289,1,2.624,10,2.624,0
1.1612,2.2482,0.64327,0.55392,1,2.64,10,2.64,0
1.1705,2.2439,0.64965,0.55496,1,2.656,10,2.656,0
1.1802,2.2394,0.65629,0.55605,1,2.672,10,2.672,0
1.1899,2.2346,0.66305,0.55718,1,2.688,10,2.688,0
1.1995,2.2294,0.66994,0.55837,1,2.704,10,2.704,0
1.209,2.2242,0.67676,0.55956,1,2.72,10,2.72,0
1.2186,2.2189,0.68358,0.56076,1,2.736,10,2.736,0
1.2281,2.2137,0.69039,0.56195,1,2.752,10,2.752,0
1.2377,2.2084,0.6972,0.56314,1,2.768,10,2.768,0
1.2472,2.2032,0.70401,0.56433,1,2.784,10,2.784,0
1.2568,2.1979,0.71082,0.56552,1,2.8,10,2.8,0
1.2665,2.1916,0.71808,0.5669,1,2.816,10,2.816,0
1.2765,2.1842,0.72575,0.56847,1,2.832,10,2.832,0
1.2865,2.1768,0.73342,0.57003,1,2.848,10,2.848,0
1.2965,2.1694,0.74109,0.5716,1,2.864,10,2.864,0
1.3059,2.1616,0.74855,0.5732,1,2.88,10,2.88,0
1.3152,2.1536,0.75607,0.57484,1,2.896,10,2.896,0
1.3245,2.1455,0.76358,0.57648,1,2.912,10,2.912,0
1.3337,2.1375,0.77106,0.57811,1,2.928,10,2.928,0
1.342,2.1297,0.77793,0.57965,1,2.944,10,2.944,0
1.3498,2.122,0.78446,0.58115,1,2.96,10,2.96,0
1.3575,2.1144,0.79097,0.58264,1,2.976,10,2.976,0
1.3651,2.1068,0.79738,0.58412,1,2.992,10,2.992,0
1.3711,2.1002,0.80254,0.58531,1,3.008,10,3.008,0
1.377,2.0937,0.80754,0.58645,1,3.024,10,3.024,0
1.3823,2.0877,0.81211,0.58751,1,3.04,10,3.04,0
1.3866,2.0827,0.81586,0.58838,1,3.056,10,3.056,0
1.3904,2.0781,0.81922,0.58919,1,3.072,10,3.072,0
1.3937,2.0742,0.82218,0.58993,1,3.088,10,3.088,0
1.3974,2.0704,0.82549,0.59073,1,3.104,10,3.104,0
1.4013,2.0668,0.82891,0.59154,1,3.12,10,3.12,0
1.4052,2.0631,0.83237,0.59235,1,3.136,10,3.136,0
1.4096,2.0595,0.83613,0.59316,1,3.152,10,3.152,0
1.414,2.0567,0.83977,0.59388,1,3.168,10,3.168,0
1.4185,2.054,0.84341,0.59459,1,3.184,10,3.184,0
1.4232,2.0515,0.84722,0.59531,1,3.2,10,3.2,0
1.4277,2.0497,0.85078,0.59591,1,3.216,10,3.216,0
1.4325,2.0478,0.85472,0.59663,1,3.232,10,3.232,0
1.4376,2.0459,0.85883,0.59741,1,3.248,10,3.248,0
1.4424,2.0441,0.86281,0.59818,1,3.264,10,3.264,0
1.4468,2.0423,0.86659,0.59898,1,3.28,10,3.28,0
1.451,2.0404,0.87035,0.5998,1,3.296,10,3.296,0
1.4553,2.0386,0.87413,0.60063,1,3.312,10,3.312,0
1.4596,2.0367,0.87792,0.60146,1,3.328,10,3.328,0
1.4638,2.035,0.88159,0.60227,1,3.344,10,3.344,0
1.4673,2.0333,0.88479,0.60299,1,3.36,10,3.36,0
1.471,2.031,0.88814,0.60376,1,3.376,10,3.376,0
1.4745,2.0288,0.89136,0.6045,1,3.392,10,3.392,0
1.478,2.0267,0.89452,0.60523,1,3.408,10,3.408,0
1.4814,2.0246,0.89769,0.60596,1,3.424,10,3.424,0
1.4849,2.0225,0.90085,0.60669,1,3.44,10,3.44,0
1.4879,2.0199,0.90383,0.60744,1,3.456,10,3.456,0
1.4908,2.0171,0.90673,0.6082,1,3.472,10,3.472,0
1.4937,2.0143,0.90964,0.60896,1,3.488,10,3.488,0
1.4969,2.0114,0.91276,0.60975,1,3.504,10,3.504,0
1.5001,2.0084,0.91594,0.61055,1,3.52,10,3.52,0
1.5034,2.0054,0.91912,0.61136,1,3.536,10,3.536,0
1.5066,2.0024,0.92231,0.61216,1,3.552,10,3.552,0
1.5096,1.9992,0.92531,0.61295,1,3.568,10,3.568,0
1.5124,1.996,0.92825,0.61374,1,3.584,10,3.584,0
1.5153,1.9927,0.93119,0.61453,1,3.6,10,3.6,0
1.518,1.9895,0.93404,0.61531,1,3.616,10,3.616,0
1.5201,1.9866,0.93642,0.616,1,3.632,10,3.632,0
1.5222,1.9836,0.93873,0.61669,1,3.648,10,3.648,0
1.5242,1.9806,0.94104,0.61738,1,3.664,10,3.664,0
1.5263,1.9777,0.94335,0.61807,1,3.68,10,3.68,0
1.5279,1.975,0.94531,0.61868,1,3.696,10,3.696,0
1.5294,1.9724,0.94708,0.61926,1,3.712,10,3.712,0
1.5308,1.9699,0.94885,0.61983,1,3.728,10,3.728,0
1.5322,1.9673,0.95059,0.6204,1,3.744,10,3.744,0
1.5334,1.965,0.95211,0.62092,1,3.76,10,3.76,0
1.5343,1.9631,0.95338,0.62137,1,3.776,10,3.776,0
1.5352,1.9612,0.95464,0.62182,1,3.792,10,3.792,0
1.5361,1.9594,0.95588,0.62226,1,3.808,10,3.808,0
1.5369,1.9577,0.95702,0.62268,1,3.824,10,3.824,0
1.5374,1.9566,0.95779,0.62299,1,3.84,10,3.84,0
1.5378,1.9557,0.9585,0.62329,1,3.856,10,3.856,0
1.5382,1.9547,0.95921,0.62359,1,3.872,10,3.872,0
1.5386,1.9537,0.95992,0.62389,1,3.888,10,3.888,0
1.539,1.9528,0.96064,0.62419,1,3.904,10,3.904,0
1.5393,1.9521,0.96126,0.62446,1,3.92,10,3.92,0
1.5395,1.9519,0.96171,0.62471,1,3.936,10,3.936,0
1.5391,1.9524,0.96189,0.62497,1,3.952,10,3.952,0
1.5386,1.9529,0.96196,0.62523,1,3.968,10,3.968,0
1.538,1.9535,0.962,0.62548,1,3.984,10,3.984,0
1.5374,1.954,0.96203,0.62573,1,4,10,4,0
1.5369,1.9545,0.96207,0.62599,1,4.016,10,4.016,0
1.5363,1.955,0.9621,0.62624,1,4.032,10,4.032,0
1.5351,1.9559,0.96208,0.62674,1,4.048,10,4.048,0
1.5331,1.9567,0.96202,0.62748,1,4.064,10,4.064,0
1.5306,1.9571,0.96193,0.62846,1,4.08,10,4.08,0
1.5281,1.9574,0.96184,0.62944,1,4.096,10,4.096,0
1.5257,1.958,0.9617,0.63032,1,4.112,10,4.112,0
1.523,1.9582,0.96151,0.63135,1,4.128,10,4.128,0
1.5184,1.9566,0.96132,0.63311,1,4.144,10,4.144,0
1.5134,1.9547,0.961,0.63502,1,4.16,10,4.16,0
1.5084,1.9528,0.96068,0.63693,1,4.176,10,4.176,0
1.5031,1.9507,0.96027,0.63888,1,4.192,10,4.192,0
1.4942,1.9466,0.95846,0.6415,1,4.208,10,4.208,0
1.4852,1.9424,0.95666,0.64412,1,4.224,10,4.224,0
1.4716,1.9344,0.95276,0.64748,1,4.24,10,4.24,0
1.4538,1.9231,0.94709,0.65151,1,4.256,10,4.256,0
1.4345,1.9082,0.94174,0.6565,1,4.272,10,4.272,0
1.4102,1.8793,0.93855,0.66555,1,4.288,10,4.288,0
1.3794,1.8316,0.9375,0.67968,1,4.304,10,4.304,0
1.3451,1.768,0.93836,0.69762,1,4.32,10,4.32,0
1.3098,1.6881,0.9418,0.71909,1,4.336,10,4.336,0
1.2759,1.5925,0.94853,0.74351,1,4.352,10,4.352,0
1.2451,1.4853,0.95769,0.76927,1,4.368,10,4.368,0
1.2202,1.3713,0.96812,0.79353,1,4.384,10,4.384,0
1.1985,1.253,0.97841,0.81638,1,4.4,10,4.4,0
1.1812,1.1386,0.98661,0.83525,1,4.416,10,4.416,0
1.1666,1.0414,0.99384,0.852,1,4.432,10,4.432,0
1.1503,0.96284,0.9979,0.86755,1,4.448,10,4.448,0
1.1359,0.89705,1.002,0.8822,1,4.464,10,4.464,0
1.1224,0.84082,1.0048,0.89521,1,4.48,10,4.48,0
1.1137,0.80065,1.0052,0.90251,1,4.496,10,4.496,0
1.1107,0.78174,1.0055,0.90534,1,4.512,10,4.512,0
1.1106,0.77865,1.0069,0.90662,1,4.528,10,4.528,0
1.1131,0.786,1.0066,0.90428,1,4.544,10,4.544,0
1.1193,0.79731,1.0041,0.89705,1,4.56,10,4.56,0
1.1269,0.81461,1.0007,0.88794,1,4.576,10,4.576,0
1.1371,0.84095,0.99613,0.876,1,4.592,10,4.592,0
1.1506,0.87414,0.99088,0.86121,1,4.608,10,4.608,0
1.1639,0.90959,0.98736,0.84841,1,4.624,10,4.624,0
1.1753,0.94208,0.98446,0.83765,1,4.64,10,4.64,0
1.1844,0.97211,0.98181,0.82896,1,4.656,10,4.656,0
1.1915,0.99516,0.98018,0.82266,1,4.672,10,4.672,0
1.1953,1.0145,0.97809,0.81827,1,4.688,10,4.688,0
1.1968,1.0269,0.97822,0.81734,1,4.704,10,4.704,0
1.1932,1.0361,0.97809,0.81974,1,4.72,10,4.72,0
1.1868,1.0406,0.97906,0.82498,1,4.736,10,4.736,0
1.1738,1.0447,0.9765,0.83194,1,4.752,10,4.752,0
1.1606,1.0435,0.9744,0.83957,1,4.768,10,4.768,0
1.1483,1.0372,0.97252,0.84691,1,4.784,10,4.784,0
1.138,1.0228,0.97199,0.85416,1,4.8,10,4.8,0
1.1285,1.0051,0.97214,0.86147,1,4.816,10,4.816,0
1.1194,0.98014,0.97265,0.86887,1,4.832,10,4.832,0
1.1102,0.95375,0.97295,0.87638,1,4.848,10,4.848,0
1.102,0.92799,0.97413,0.88401,1,4.864,10,4.864,0
1.094,0.90393,0.97548,0.89171,1,4.88,10,4.88,0
1.0868,0.87926,0.9771,0.89911,1,4.896,10,4.896,0
1.0806,0.85301,0.97883,0.90583,1,4.912,10,4.912,0
1.075,0.82666,0.98064,0.91223,1,4.928,10,4.928,0
1.0704,0.80037,0.98265,0.91799,1,4.944,10,4.944,0
1.0666,0.77596,0.98426,0.92279,1,4.96,10,4.96,0
1.0631,0.75281,0.98527,0.92686,1,4.976,10,4.976,0
1.0588,0.73068,0.98493,0.93026,1,4.992,10,4.992,0
1.0534,0.71046,0.98232,0.93253,1,5.008,10,5.008,0
1.0503,0.69418,0.98169,0.93475,1,5.024,10,5.024,0
1.0471,0.67791,0.98107,0.93696,1,5.04,10,5.04,0
1.044,0.66163,0.98044,0.93917,1,5.056,10,5.056,0
1.0409,0.64536,0.97981,0.94138,1,5.072,10,5.072,0
1.0381,0.63026,0.97927,0.94336,1,5.088,10,5.088,0
1.0363,0.61839,0.97898,0.94469,1,5.104,10,5.104,0
1.0346,0.60652,0.97869,0.94602,1,5.12,10,5.12,0
1.0329,0.59465,0.9784,0.94735,1,5.136,10,5.136,0
1.0311,0.58279,0.97811,0.94868,1,5.152,10,5.152,0
1.0294,0.57092,0.97782,0.95001,1,5.168,10,5.168,0
1.0276,0.55905,0.97753,0.95134,1,5.184,10,5.184,0
1.0259,0.54718,0.97724,0.95267,1,5.2,10,5.2,0
1.0242,0.53531,0.97695,0.954,1,5.216,10,5.216,0
1.0225,0.52402,0.97672,0.95528,1,5.232,10,5.232,0
1.021,0.51311,0.97654,0.95654,1,5.248,10,5.248,0
1.0194,0.5022,0.97635,0.9578,1,5.264,10,5.264,0
1.0179,0.4913,0.97617,0.95907,1,5.28,10,5.28,0
1.0163,0.48039,0.97598,0.96033,1,5.296,10,5.296,0
1.0148,0.46948,0.9758,0.96159,1,5.312,10,5.312,0
1.014,0.46238,0.97578,0.96227,1,5.328,10,5.328,0
1.0133,0.4554,0.97576,0.96293,1,5.344,10,5.344,0
1.0126,0.44843,0.97574,0.96359,1,5.36,10,5.36,0
1.0119,0.44146,0.97573,0.96425,1,5.376,10,5.376,0
1.0112,0.43448,0.97571,0.96492,1,5.392,10,5.392,0
1.0105,0.42751,0.9757,0.96558,1,5.408,10,5.408,0
1.0098,0.42054,0.97568,0.96624,1,5.424,10,5.424,0
1.0092,0.41329,0.97584,0.96698,1,5.44,10,5.44,0
1.0086,0.40603,0.97601,0.96772,1,5.456,10,5.456,0
1.008,0.39877,0.97618,0.96846,1,5.472,10,5.472,0
1.0074,0.39151,0.97634,0.96921,1,5.488,10,5.488,0
1.0068,0.38425,0.97651,0.96995,1,5.504,10,5.504,0
1.0062,0.37698,0.97668,0.97069,1,5.52,10,5.52,0
1.0056,0.36972,0.97684,0.97143,1,5.536,10,5.536,0
1.005,0.36246,0.97701,0.97217,1,5.552,10,5.552,0
1.0044,0.3552,0.97718,0.97291,1,5.568,10,5.568,0
1.0038,0.34794,0.97734,0.97366,1,5.584,10,5.584,0
1.0032,0.34068,0.97751,0.9744,1,5.6,10,5.6,0
1.0026,0.33342,0.97768,0.97514,1,5.616,10,5.616,0
1.002,0.32616,0.97784,0.97588,1,5.632,10,5.632,0
1.0014,0.3189,0.97801,0.97662,1,5.648,10,5.648,0
1.0008,0.31173,0.97817,0.97735,1,5.664,10,5.664,0
1.0006,0.30707,0.97817,0.97763,1,5.68,10,5.68,0
1.0003,0.3024,0.97817,0.9779,1,5.696,10,5.696,0
0.99999,0.29774,0.97817,0.97818,1,5.712,10,5.712,0
0.99971,0.29308,0.97817,0.97846,1,5.728,10,5.728,0
0.99942,0.28842,0.97817,0.97874,1,5.744,10,5.744,0
0.99914,0.28376,0.97816,0.97902,1,5.76,10,5.76,0
0.99886,0.27909,0.97816,0.97929,1,5.776,10,5.776,0
0.99858,0.27443,0.97816,0.97957,1,5.792,10,5.792,0
0.99829,0.26977,0.97816,0.97985,1,5.808,10,5.808,0
0.99801,0.26511,0.97816,0.98013,1,5.824,10,5.824,0
0.99773,0.26044,0.97816,0.98041,1,5.84,10,5.84,0
0.99744,0.25578,0.97816,0.98068,1,5.856,10,5.856,0
0.99716,0.25112,0.97816,0.98096,1,5.872,10,5.872,0
0.99688,0.24646,0.97816,0.98124,1,5.888,10,5.888,0
0.99659,0.24179,0.97816,0.98152,1,5.904,10,5.904,0
0.99631,0.23713,0.97816,0.98179,1,5.92,10,5.92,0
0.99603,0.23247,0.97816,0.98207,1,5.936,10,5.936,0
0.99574,0.22781,0.97815,0.98235,1,5.952,10,5.952,0
0.99553,0.22346,0.97819,0.9826,1,5.968,10,5.968,0
0.99532,0.21911,0.97823,0.98285,1,5.984,10,5.984,0
0.9951,0.21476,0.97827,0.9831,1,6,10,6,0
0.99489,0.21041,0.97831,0.98335,1,6.016,10,6.016,0
0.99468,0.20606,0.97835,0.9836,1,6.032,10,6.032,0
0.99446,0.20171,0.97839,0.98385,1,6.048,10,6.048,0
0.99425,0.19736,0.97843,0.9841,1,6.064,10,6.064,0
0.99404,0.19301,0.97847,0.98435,1,6.08,10,6.08,0
0.99382,0.18866,0.97851,0.9846,1,6.096,10,6.096,0
0.99361,0.18432,0.97855,0.98485,1,6.112,10,6.112,0
0.9934,0.17997,0.97859,0.9851,1,6.128,10,6.128,0
0.99318,0.17562,0.97863,0.98535,1,6.144,10,6.144,0
0.99297,0.17127,0.97867,0.9856,1,6.16,10,6.16,0
0.99275,0.16692,0.97871,0.98585,1,6.176,10,6.176,0
0.99254,0.16257,0.97874,0.9861,1,6.192,10,6.192,0
0.99237,0.15865,0.97877,0.9863,1,6.208,10,6.208,0
0.99231,0.15611,0.97877,0.98636,1,6.224,10,6.224,0
0.99225,0.15358,0.97877,0.98641,1,6.24,10,6.24,0
0.9922,0.15104,0.97877,0.98647,1,6.256,10,6.256,0
0.99214,0.1485,0.97877,0.98652,1,6.272,10,6.272,0
0.99209,0.14596,0.97877,0.98658,1,6.288,10,6.288,0
0.99203,0.14342,0.97877,0.98663,1,6.304,10,6.304,0
0.99198,0.14088,0.97877,0.98669,1,6.32,10,6.32,0
0.99192,0.13835,0.97877,0.98674,1,6.336,10,6.336,0
0.99187,0.13581,0.97877,0.9868,1,6.352,10,6.352,0
0.99181,0.13327,0.97877,0.98685,1,6.368,10,6.368,0
0.99176,0.13073,0.97877,0.98691,1,6.384,10,6.384,0
0.9917,0.12819,0.97877,0.98696,1,6.4,10,6.4,0
0.99164,0.12565,0.97877,0.98702,1,6.416,10,6.416,0
0.99159,0.12312,0.97877,0.98707,1,6.432,10,6.432,0
0.99153,0.12058,0.97877,0.98713,1,6.448,10,6.448,0
0.99148,0.11804,0.97877,0.98719,1,6.464,10,6.464,0
0.99142,0.1155,0.97877,0.98724,1,6.48,10,6.48,0
0.99137,0.11296,0.97877,0.9873,1,6.496,10,6.496,0
