"Density","Mach","Pressure","Temperature","vtkValidPointMask","arc_length","Points:0","Points:1","Points:2"
177.71,0.22708,8.5975e+06,197.38,1,0,-8.1,0,0
177.68,0.22781,8.594e+06,197.35,1,0.0731,-8.0269,0,0
177.64,0.22855,8.5906e+06,197.33,1,0.1462,-7.9538,0,0
177.6,0.22928,8.5872e+06,197.31,1,0.2193,-7.8807,0,0
177.56,0.23002,8.5838e+06,197.28,1,0.2924,-7.8076,0,0
177.52,0.23075,8.5804e+06,197.26,1,0.3655,-7.7345,0,0
177.48,0.23149,8.5769e+06,197.24,1,0.4386,-7.6614,0,0
177.43,0.23236,8.573e+06,197.21,1,0.5117,-7.5883,0,0
177.36,0.23393,8.5665e+06,197.17,1,0.5848,-7.5152,0,0
177.28,0.23549,8.56e+06,197.13,1,0.6579,-7.4421,0,0
177.2,0.23705,8.5535e+06,197.08,1,0.731,-7.369,0,0
177.13,0.23861,8.547e+06,197.04,1,0.8041,-7.2959,0,0
177.05,0.24017,8.5405e+06,197,1,0.8772,-7.2228,0,0
176.98,0.24173,8.534e+06,196.96,1,0.9503,-7.1497,0,0
176.88,0.24368,8.5259e+06,196.9,1,1.0234,-7.0766,0,0
176.75,0.24652,8.5142e+06,196.82,1,1.0965,-7.0035,0,0
176.61,0.24935,8.5026e+06,196.75,1,1.1696,-6.9304,0,0
176.47,0.25219,8.4909e+06,196.67,1,1.2427,-6.8573,0,0
176.34,0.25502,8.4793e+06,196.59,1,1.3158,-6.7842,0,0
176.2,0.25785,8.4676e+06,196.51,1,1.3889,-6.7111,0,0
176.06,0.26069,8.456e+06,196.44,1,1.462,-6.638,0,0
175.9,0.26405,8.442e+06,196.34,1,1.5351,-6.5649,0,0
175.69,0.2682,8.4245e+06,196.23,1,1.6082,-6.4918,0,0
175.48,0.27234,8.4071e+06,196.11,1,1.6813,-6.4187,0,0
175.28,0.27649,8.3897e+06,195.99,1,1.7544,-6.3456,0,0
175.07,0.28064,8.3722e+06,195.88,1,1.8275,-6.2725,0,0
174.87,0.28479,8.3548e+06,195.76,1,1.9006,-6.1994,0,0
174.66,0.28893,8.3373e+06,195.64,1,1.9737,-6.1263,0,0
174.42,0.29366,8.3168e+06,195.5,1,2.0468,-6.0532,0,0
174.12,0.29915,8.2922e+06,195.34,1,2.1199,-5.9801,0,0
173.83,0.30463,8.2676e+06,195.17,1,2.193,-5.907,0,0
173.54,0.31011,8.2431e+06,195,1,2.2661,-5.8339,0,0
173.24,0.3156,8.2185e+06,194.84,1,2.3392,-5.7608,0,0
172.95,0.32108,8.1939e+06,194.67,1,2.4123,-5.6877,0,0
172.66,0.32656,8.1693e+06,194.5,1,2.4854,-5.6146,0,0
172.33,0.33247,8.1418e+06,194.31,1,2.5585,-5.5415,0,0
171.95,0.33893,8.1103e+06,194.09,1,2.6316,-5.4684,0,0
171.57,0.3454,8.0788e+06,193.87,1,2.7047,-5.3953,0,0
171.19,0.35186,8.0473e+06,193.65,1,2.7778,-5.3222,0,0
170.81,0.35833,8.0158e+06,193.43,1,2.8509,-5.2491,0,0
170.43,0.3648,7.9844e+06,193.21,1,2.924,-5.176,0,0
170.05,0.37126,7.9529e+06,192.99,1,2.9971,-5.1029,0,0
169.63,0.37832,7.9184e+06,192.75,1,3.0702,-5.0298,0,0
169.15,0.38636,7.879e+06,192.47,1,3.1433,-4.9567,0,0
168.67,0.3944,7.8396e+06,192.19,1,3.2164,-4.8836,0,0
168.19,0.40243,7.8002e+06,191.91,1,3.2895,-4.8105,0,0
167.57,0.41169,7.7493e+06,191.55,1,3.3626,-4.7374,0,0
166.91,0.42119,7.696e+06,191.16,1,3.4357,-4.6643,0,0
166.25,0.4307,7.6426e+06,190.77,1,3.5088,-4.5912,0,0
165.59,0.44034,7.5895e+06,190.39,1,3.5819,-4.5181,0,0
164.93,0.45036,7.5367e+06,190,1,3.655,-4.445,0,0
164.26,0.46038,7.484e+06,189.61,1,3.7281,-4.3719,0,0
163.6,0.47039,7.4312e+06,189.23,1,3.8012,-4.2988,0,0
162.84,0.48122,7.3708e+06,188.77,1,3.8743,-4.2257,0,0
162.02,0.49241,7.3071e+06,188.29,1,3.9474,-4.1526,0,0
161.21,0.50359,7.2433e+06,187.81,1,4.0205,-4.0795,0,0
160.4,0.5149,7.1792e+06,187.33,1,4.0936,-4.0064,0,0
159.53,0.52717,7.1123e+06,186.81,1,4.1667,-3.9333,0,0
158.67,0.53945,7.0454e+06,186.29,1,4.2398,-3.8602,0,0
157.81,0.55172,6.9786e+06,185.77,1,4.3129,-3.7871,0,0
156.81,0.56457,6.9021e+06,185.16,1,4.386,-3.714,0,0
155.69,0.57796,6.8169e+06,184.47,1,4.4591,-3.6409,0,0
154.57,0.59135,6.7316e+06,183.78,1,4.5322,-3.5678,0,0
153.46,0.60475,6.6463e+06,183.09,1,4.6053,-3.4947,0,0
152.41,0.61776,6.571e+06,182.47,1,4.6784,-3.4216,0,0
151.38,0.63075,6.4965e+06,181.85,1,4.7515,-3.3485,0,0
150.35,0.64374,6.422e+06,181.23,1,4.8246,-3.2754,0,0
149.31,0.65672,6.3475e+06,180.61,1,4.8977,-3.2023,0,0
148.28,0.66971,6.273e+06,179.99,1,4.9708,-3.1292,0,0
147.24,0.68269,6.1986e+06,179.37,1,5.0439,-3.0561,0,0
146.21,0.69568,6.1241e+06,178.74,1,5.117,-2.983,0,0
145.05,0.70986,6.0431e+06,178.03,1,5.1901,-2.9099,0,0
143.82,0.72461,5.959e+06,177.27,1,5.2632,-2.8368,0,0
142.6,0.73936,5.8749e+06,176.51,1,5.3363,-2.7637,0,0
141.37,0.7541,5.7909e+06,175.76,1,5.4094,-2.6906,0,0
140.15,0.76885,5.7068e+06,175,1,5.4825,-2.6175,0,0
138.92,0.78359,5.6228e+06,174.24,1,5.5556,-2.5444,0,0
137.7,0.79834,5.5387e+06,173.48,1,5.6287,-2.4713,0,0
136.44,0.81339,5.4539e+06,172.69,1,5.7018,-2.3982,0,0
135.11,0.82897,5.3679e+06,171.83,1,5.7749,-2.3251,0,0
133.79,0.84455,5.2819e+06,170.98,1,5.848,-2.252,0,0
132.46,0.86012,5.1959e+06,170.12,1,5.9211,-2.1789,0,0
131.14,0.8757,5.1099e+06,169.27,1,5.9942,-2.1058,0,0
129.81,0.89128,5.0239e+06,168.42,1,6.0673,-2.0327,0,0
128.49,0.90685,4.9379e+06,167.56,1,6.1404,-1.9596,0,0
127.16,0.92245,4.8519e+06,166.71,1,6.2135,-1.8865,0,0
125.79,0.9387,4.7692e+06,165.8,1,6.2866,-1.8134,0,0
124.42,0.95496,4.6864e+06,164.9,1,6.3597,-1.7403,0,0
123.05,0.97121,4.6037e+06,164,1,6.4328,-1.6672,0,0
121.67,0.98747,4.5209e+06,163.09,1,6.5059,-1.5941,0,0
120.3,1.0037,4.4382e+06,162.19,1,6.579,-1.521,0,0
118.93,1.02,4.3554e+06,161.28,1,6.6521,-1.4479,0,0
117.56,1.0362,4.2727e+06,160.38,1,6.7252,-1.3748,0,0
116.16,1.0531,4.1922e+06,159.44,1,6.7983,-1.3017,0,0
114.74,1.0703,4.1131e+06,158.48,1,6.8714,-1.2286,0,0
113.32,1.0875,4.034e+06,157.52,1,6.9445,-1.1555,0,0
111.9,1.1046,3.9549e+06,156.56,1,7.0176,-1.0824,0,0
110.49,1.1218,3.8758e+06,155.6,1,7.0907,-1.0093,0,0
109.07,1.139,3.7967e+06,154.64,1,7.1638,-0.9362,0,0
107.65,1.1562,3.7176e+06,153.69,1,7.2369,-0.8631,0,0
106.22,1.1738,3.6389e+06,152.71,1,7.31,-0.79,0,0
104.73,1.193,3.562e+06,151.65,1,7.3831,-0.7169,0,0
103.24,1.2122,3.4851e+06,150.59,1,7.4562,-0.6438,0,0
101.76,1.2314,3.4082e+06,149.54,1,7.5293,-0.5707,0,0
100.27,1.2506,3.3313e+06,148.48,1,7.6024,-0.4976,0,0
98.781,1.2698,3.2544e+06,147.42,1,7.6755,-0.4245,0,0
97.293,1.289,3.1775e+06,146.37,1,7.7486,-0.3514,0,0
95.805,1.3082,3.1006e+06,145.31,1,7.8217,-0.2783,0,0
94.263,1.329,3.0254e+06,144.17,1,7.8948,-0.2052,0,0
92.695,1.3506,2.9508e+06,142.98,1,7.9679,-0.1321,0,0
91.128,1.3721,2.8763e+06,141.8,1,8.041,-0.059,0,0
89.56,1.3936,2.8018e+06,140.62,1,8.1141,0.0141,0,0
87.992,1.4152,2.7273e+06,139.43,1,8.1872,0.0872,0,0
86.425,1.4367,2.6528e+06,138.25,1,8.2603,0.1603,0,0
84.857,1.4583,2.5782e+06,137.07,1,8.3334,0.2334,0,0
83.294,1.4799,2.5049e+06,135.88,1,8.4065,0.3065,0,0
81.768,1.502,2.4394e+06,134.67,1,8.4796,0.3796,0,0
80.242,1.5241,2.374e+06,133.47,1,8.5527,0.4527,0,0
78.716,1.5462,2.3085e+06,132.26,1,8.6258,0.5258,0,0
77.19,1.5684,2.243e+06,131.06,1,8.6989,0.5989,0,0
75.664,1.5905,2.1776e+06,129.85,1,8.772,0.672,0,0
74.138,1.6126,2.1121e+06,128.65,1,8.8451,0.7451,0,0
72.612,1.6347,2.0466e+06,127.44,1,8.9182,0.8182,0,0
71.151,1.6573,1.9872e+06,126.26,1,8.9913,0.8913,0,0
69.746,1.6802,1.933e+06,125.1,1,9.0644,0.9644,0,0
68.342,1.7031,1.8788e+06,123.94,1,9.1375,1.0375,0,0
66.938,1.7261,1.8247e+06,122.78,1,9.2106,1.1106,0,0
65.533,1.749,1.7705e+06,121.62,1,9.2837,1.1837,0,0
64.129,1.772,1.7163e+06,120.47,1,9.3568,1.2568,0,0
62.725,1.7949,1.6621e+06,119.31,1,9.4299,1.3299,0,0
61.32,1.8178,1.608e+06,118.15,1,9.503,1.403,0,0
59.811,1.8444,1.5525e+06,116.79,1,9.5761,1.4761,0,0
58.287,1.8714,1.4969e+06,115.41,1,9.6492,1.5492,0,0
56.763,1.8984,1.4413e+06,114.02,1,9.7223,1.6223,0,0
55.245,1.9254,1.3859e+06,112.64,1,9.7954,1.6954,0,0
53.964,1.9498,1.3416e+06,111.43,1,9.8685,1.7685,0,0
52.682,1.9741,1.2974e+06,110.23,1,9.9416,1.8416,0,0
51.4,1.9985,1.2531e+06,109.02,1,10.015,1.9147,0,0
50.138,2.0226,1.2098e+06,107.82,1,10.088,1.9878,0,0
48.974,2.0459,1.1716e+06,106.68,1,10.161,2.0609,0,0
47.809,2.0692,1.1333e+06,105.55,1,10.234,2.134,0,0
46.645,2.0924,1.0951e+06,104.41,1,10.307,2.2071,0,0
45.56,2.1146,1.0598e+06,103.34,1,10.38,2.2802,0,0
44.671,2.1342,1.0317e+06,102.43,1,10.453,2.3533,0,0
43.782,2.1537,1.0036e+06,101.53,1,10.526,2.4264,0,0
42.892,2.1733,9.7547e+05,100.62,1,10.599,2.4995,0,0
42.05,2.1923,9.4907e+05,99.749,1,10.673,2.5726,0,0
41.275,2.2105,9.2512e+05,98.93,1,10.746,2.6457,0,0
40.652,2.2236,9.0592e+05,98.267,1,10.819,2.7188,0,0
40.208,2.2307,8.9234e+05,97.788,1,10.892,2.7919,0,0
40.008,2.2336,8.8624e+05,97.573,1,10.965,2.865,0,0
40.048,2.2323,8.8743e+05,97.615,1,11.038,2.9381,0,0
40.279,2.2258,8.9452e+05,97.866,1,11.111,3.0112,0,0
40.665,2.2153,9.0636e+05,98.283,1,11.184,3.0843,0,0
41.208,2.2017,9.2355e+05,98.868,1,11.257,3.1574,0,0
41.854,2.186,9.4427e+05,99.562,1,11.33,3.2305,0,0
42.499,2.1704,9.6499e+05,100.26,1,11.404,3.3036,0,0
43.145,2.1548,9.8571e+05,100.95,1,11.477,3.3767,0,0
43.791,2.1392,1.0064e+06,101.65,1,11.55,3.4498,0,0
44.437,2.1236,1.0272e+06,102.34,1,11.623,3.5229,0,0
45.082,2.108,1.0479e+06,103.03,1,11.696,3.596,0,0
45.728,2.0924,1.0686e+06,103.73,1,11.769,3.6691,0,0
46.847,2.0686,1.106e+06,104.87,1,11.842,3.7422,0,0
48.128,2.0418,1.1492e+06,106.16,1,11.915,3.8153,0,0
49.41,2.0151,1.1924e+06,107.46,1,11.988,3.8884,0,0
50.692,1.9884,1.2356e+06,108.75,1,12.062,3.9615,0,0
51.842,1.9669,1.2753e+06,109.85,1,12.135,4.0346,0,0
52.954,1.9467,1.3142e+06,110.9,1,12.208,4.1077,0,0
54.067,1.9266,1.353e+06,111.95,1,12.281,4.1808,0,0
55.179,1.9065,1.3918e+06,113,1,12.354,4.2539,0,0
55.794,1.897,1.4133e+06,113.56,1,12.427,4.327,0,0
56.297,1.8898,1.431e+06,114,1,12.5,4.4001,0,0
56.458,1.8883,1.4364e+06,114.13,1,12.573,4.4732,0,0
56.203,1.8939,1.4272e+06,113.9,1,12.646,4.5463,0,0
55.407,1.9087,1.3991e+06,113.17,1,12.719,4.6194,0,0
54.515,1.9251,1.3676e+06,112.35,1,12.792,4.6925,0,0
53.556,1.9438,1.3339e+06,111.45,1,12.866,4.7656,0,0
52.582,1.963,1.2999e+06,110.54,1,12.939,4.8387,0,0
51.583,1.9814,1.2659e+06,109.58,1,13.012,4.9118,0,0
50.578,1.9996,1.2318e+06,108.61,1,13.085,4.9849,0,0
49.574,2.0179,1.1978e+06,107.64,1,13.158,5.058,0,0
48.569,2.0362,1.1637e+06,106.68,1,13.231,5.1311,0,0
47.817,2.0526,1.1383e+06,105.9,1,13.304,5.2042,0,0
47.117,2.0687,1.1147e+06,105.15,1,13.377,5.2773,0,0
46.416,2.0848,1.091e+06,104.41,1,13.45,5.3504,0,0
45.716,2.1008,1.0673e+06,103.67,1,13.524,5.4235,0,0
44.887,2.1191,1.0416e+06,102.82,1,13.597,5.4966,0,0
44.029,2.1379,1.0153e+06,101.96,1,13.67,5.5697,0,0
43.172,2.1567,9.8908e+05,101.09,1,13.743,5.6428,0,0
42.314,2.1755,9.6284e+05,100.22,1,13.816,5.7159,0,0
41.456,2.1943,9.366e+05,99.356,1,13.889,5.789,0,0
40.599,2.2131,9.1036e+05,98.489,1,13.962,5.8621,0,0
39.741,2.2319,8.8412e+05,97.621,1,14.035,5.9352,0,0
38.884,2.2507,8.5788e+05,96.754,1,14.108,6.0083,0,0
37.965,2.2731,8.313e+05,95.752,1,14.181,6.0814,0,0
37.024,2.2968,8.046e+05,94.702,1,14.254,6.1545,0,0
36.084,2.3205,7.7791e+05,93.653,1,14.328,6.2276,0,0
35.144,2.3442,7.5121e+05,92.603,1,14.401,6.3007,0,0
34.203,2.3679,7.2452e+05,91.554,1,14.474,6.3738,0,0
33.263,2.3916,6.9782e+05,90.504,1,14.547,6.4469,0,0
32.323,2.4153,6.7112e+05,89.454,1,14.62,6.52,0,0
31.382,2.439,6.4443e+05,88.405,1,14.693,6.5931,0,0
30.405,2.4664,6.1768e+05,87.231,1,14.766,6.6662,0,0
29.405,2.4962,5.9091e+05,85.976,1,14.839,6.7393,0,0
28.404,2.5259,5.6413e+05,84.721,1,14.912,6.8124,0,0
27.404,2.5557,5.3735e+05,83.466,1,14.986,6.8855,0,0
26.467,2.5854,5.1289e+05,82.248,1,15.059,6.9586,0,0
25.592,2.615,4.9066e+05,81.067,1,15.132,7.0317,0,0
24.717,2.6445,4.6842e+05,79.885,1,15.205,7.1048,0,0
23.842,2.6741,4.4619e+05,78.703,1,15.278,7.1779,0,0
23.054,2.7019,4.265e+05,77.613,1,15.351,7.251,0,0
22.392,2.727,4.1047e+05,76.657,1,15.424,7.3241,0,0
21.729,2.7522,3.9443e+05,75.7,1,15.497,7.3972,0,0
21.066,2.7773,3.784e+05,74.744,1,15.57,7.4703,0,0
20.465,2.8005,3.6393e+05,73.859,1,15.643,7.5434,0,0
20.018,2.8189,3.5337e+05,73.154,1,15.717,7.6165,0,0
19.57,2.8373,3.4282e+05,72.448,1,15.79,7.6896,0,0
19.123,2.8557,3.3227e+05,71.743,1,15.863,7.7627,0,0
18.696,2.8734,3.2226e+05,71.07,1,15.936,7.8358,0,0
18.38,2.8879,3.1511e+05,70.565,1,16.009,7.9089,0,0
18.064,2.9024,3.0796e+05,70.06,1,16.082,7.982,0,0
17.748,2.9169,3.0081e+05,69.555,1,16.155,8.0551,0,0
17.432,2.9314,2.9368e+05,69.05,1,16.228,8.1282,0,0
17.19,2.9433,2.8826e+05,68.637,1,16.301,8.2013,0,0
16.949,2.9553,2.8284e+05,68.223,1,16.374,8.2744,0,0
16.707,2.9672,2.7742e+05,67.81,1,16.448,8.3475,0,0
16.465,2.9791,2.72e+05,67.396,1,16.521,8.4206,0,0
16.251,2.9901,2.6732e+05,67.029,1,16.594,8.4937,0,0
16.042,3.0009,2.6278e+05,66.67,1,16.667,8.5668,0,0
15.833,3.0117,2.5823e+05,66.31,1,16.74,8.6399,0,0
15.624,3.0226,2.5368e+05,65.951,1,16.813,8.713,0,0
15.444,3.0327,2.4968e+05,65.61,1,16.886,8.7861,0,0
15.277,3.0425,2.4593e+05,65.278,1,16.959,8.8592,0,0
15.11,3.0524,2.4219e+05,64.945,1,17.032,8.9323,0,0
14.943,3.0622,2.3844e+05,64.613,1,17.105,9.0054,0,0
14.788,3.0715,2.3506e+05,64.314,1,17.179,9.0785,0,0
14.644,3.0802,2.3205e+05,64.049,1,17.252,9.1516,0,0
14.501,3.0889,2.2904e+05,63.783,1,17.325,9.2247,0,0
14.357,3.0976,2.2603e+05,63.518,1,17.398,9.2978,0,0
14.214,3.1063,2.2302e+05,63.253,1,17.471,9.3709,0,0
14.07,3.115,2.2001e+05,62.988,1,17.544,9.444,0,0
13.927,3.1237,2.17e+05,62.722,1,17.617,9.5171,0,0
13.783,3.1324,2.1399e+05,62.457,1,17.69,9.5902,0,0
13.64,3.1411,2.1099e+05,62.191,1,17.763,9.6633,0,0
13.496,3.1506,2.0807e+05,61.914,1,17.836,9.7364,0,0
13.352,3.1601,2.0516e+05,61.638,1,17.91,9.8095,0,0
13.209,3.1695,2.0224e+05,61.361,1,17.983,9.8826,0,0
13.065,3.179,1.9933e+05,61.085,1,18.056,9.9557,0,0
12.921,3.1885,1.9641e+05,60.808,1,18.129,10.029,0,0
12.778,3.1979,1.935e+05,60.532,1,18.202,10.102,0,0
12.634,3.2074,1.9058e+05,60.255,1,18.275,10.175,0,0
12.49,3.2169,1.8766e+05,59.979,1,18.348,10.248,0,0
12.34,3.2272,1.8468e+05,59.681,1,18.421,10.321,0,0
12.185,3.2382,1.8166e+05,59.37,1,18.494,10.394,0,0
12.03,3.2492,1.7863e+05,59.058,1,18.567,10.467,0,0
11.875,3.2601,1.7561e+05,58.747,1,18.64,10.54,0,0
11.72,3.2711,1.7258e+05,58.436,1,18.714,10.614,0,0
11.565,3.2821,1.6955e+05,58.124,1,18.787,10.687,0,0
11.41,3.293,1.6653e+05,57.813,1,18.86,10.76,0,0
11.255,3.304,1.635e+05,57.502,1,18.933,10.833,0,0
11.102,3.315,1.6051e+05,57.191,1,19.006,10.906,0,0
10.968,3.326,1.5794e+05,56.89,1,19.079,10.979,0,0
10.833,3.3371,1.5536e+05,56.59,1,19.152,11.052,0,0
10.699,3.3481,1.5279e+05,56.289,1,19.225,11.125,0,0
10.564,3.3592,1.5021e+05,55.988,1,19.298,11.198,0,0
10.43,3.3703,1.4764e+05,55.688,1,19.372,11.271,0,0
10.295,3.3813,1.4506e+05,55.387,1,19.445,11.345,0,0
10.161,3.3924,1.4249e+05,55.086,1,19.518,11.418,0,0
10.027,3.4035,1.3991e+05,54.786,1,19.591,11.491,0,0
9.8903,3.415,1.3738e+05,54.481,1,19.664,11.564,0,0
9.7522,3.427,1.349e+05,54.172,1,19.737,11.637,0,0
9.6141,3.4389,1.3242e+05,53.864,1,19.81,11.71,0,0
9.476,3.4509,1.2993e+05,53.555,1,19.883,11.783,0,0
9.3379,3.4629,1.2745e+05,53.246,1,19.956,11.856,0,0
9.1998,3.4749,1.2497e+05,52.937,1,20.029,11.929,0,0
9.0617,3.4869,1.2248e+05,52.629,1,20.103,12.002,0,0
8.9236,3.4989,1.2e+05,52.32,1,20.176,12.076,0,0
8.7854,3.5109,1.1752e+05,52.011,1,20.249,12.149,0,0
8.6415,3.5249,1.1496e+05,51.666,1,20.322,12.222,0,0
8.4963,3.5394,1.1239e+05,51.314,1,20.395,12.295,0,0
8.3315,3.5563,1.095e+05,50.91,1,20.468,12.368,0,0
8.1563,3.5745,1.0644e+05,50.478,1,20.541,12.441,0,0
7.9421,3.5971,1.0272e+05,49.939,1,20.614,12.514,0,0
7.7028,3.6234,98590,49.322,1,20.687,12.587,0,0
7.4929,3.6478,94997,48.77,1,20.76,12.66,0,0
7.2512,3.6768,90906,48.123,1,20.833,12.733,0,0
6.9742,3.7134,86203,47.334,1,20.907,12.807,0,0
20.6,0.44096,9.4626e+05,162.58,1,20.98,12.88,0,0
28.829,0.21502,1.3722e+06,171.03,1,21.053,12.953,0,0
29.669,0.2268,1.4018e+06,170.19,1,21.126,13.026,0,0
30.097,0.22743,1.4214e+06,170.26,1,21.199,13.099,0,0
30.234,0.22285,1.4278e+06,170.3,1,21.272,13.172,0,0
30.283,0.21655,1.43e+06,170.3,1,21.345,13.245,0,0
30.345,0.21111,1.4335e+06,170.38,1,21.418,13.318,0,0
30.417,0.20638,1.4381e+06,170.53,1,21.491,13.391,0,0
30.461,0.20074,1.4419e+06,170.71,1,21.564,13.464,0,0
30.455,0.19344,1.4442e+06,170.97,1,21.638,13.538,0,0
30.45,0.18614,1.4464e+06,171.24,1,21.711,13.611,0,0
30.444,0.17884,1.4487e+06,171.5,1,21.784,13.684,0,0
30.438,0.17153,1.451e+06,171.76,1,21.857,13.757,0,0
30.423,0.16264,1.4524e+06,171.97,1,21.93,13.83,0,0
30.408,0.15366,1.4537e+06,172.17,1,22.003,13.903,0,0
30.346,0.14319,1.4542e+06,172.5,1,22.076,13.976,0,0
30.448,0.13556,1.4675e+06,173.4,1,22.149,14.049,0,0
30.785,0.13463,1.4911e+06,174.22,1,22.222,14.122,0,0
31.238,0.13789,1.5171e+06,174.73,1,22.295,14.195,0,0
31.691,0.14115,1.543e+06,175.23,1,22.369,14.269,0,0
32.144,0.14442,1.569e+06,175.73,1,22.442,14.342,0,0
32.597,0.14768,1.595e+06,176.23,1,22.515,14.415,0,0
33.05,0.15094,1.6209e+06,176.74,1,22.588,14.488,0,0
33.503,0.1542,1.6469e+06,177.24,1,22.661,14.561,0,0
33.956,0.15746,1.6729e+06,177.74,1,22.734,14.634,0,0
34.408,0.16072,1.6988e+06,178.24,1,22.807,14.707,0,0
34.833,0.16784,1.7138e+06,177.91,1,22.88,14.78,0,0
35.242,0.17709,1.7227e+06,177.12,1,22.953,14.853,0,0
35.651,0.18634,1.7316e+06,176.33,1,23.027,14.926,0,0
36.06,0.19559,1.7405e+06,175.54,1,23.1,15,0,0
36.468,0.20484,1.7494e+06,174.75,1,23.173,15.073,0,0
36.877,0.21409,1.7583e+06,173.96,1,23.246,15.146,0,0
37.286,0.22334,1.7672e+06,173.17,1,23.319,15.219,0,0
37.695,0.23259,1.7761e+06,172.37,1,23.392,15.292,0,0
38.104,0.24184,1.785e+06,171.58,1,23.465,15.365,0,0
38.44,0.25394,1.7896e+06,170.81,1,23.538,15.438,0,0
38.745,0.26729,1.7923e+06,170.03,1,23.611,15.511,0,0
39.049,0.28064,1.7949e+06,169.26,1,23.684,15.584,0,0
39.353,0.294,1.7975e+06,168.49,1,23.757,15.657,0,0
39.657,0.30735,1.8002e+06,167.72,1,23.831,15.731,0,0
39.962,0.3207,1.8028e+06,166.94,1,23.904,15.804,0,0
40.266,0.33406,1.8055e+06,166.17,1,23.977,15.877,0,0
40.57,0.34741,1.8081e+06,165.4,1,24.05,15.95,0,0
40.875,0.36076,1.8107e+06,164.63,1,24.123,16.023,0,0
41.104,0.37278,1.8126e+06,164.08,1,24.196,16.096,0,0
41.299,0.38416,1.8141e+06,163.63,1,24.269,16.169,0,0
41.494,0.39555,1.8156e+06,163.18,1,24.342,16.242,0,0
41.689,0.40694,1.8171e+06,162.74,1,24.415,16.315,0,0
41.884,0.41832,1.8186e+06,162.29,1,24.489,16.389,0,0
42.079,0.42971,1.82e+06,161.84,1,24.562,16.462,0,0
42.274,0.4411,1.8215e+06,161.4,1,24.635,16.535,0,0
42.469,0.45248,1.823e+06,160.95,1,24.708,16.608,0,0
42.664,0.46387,1.8245e+06,160.5,1,24.781,16.681,0,0
42.819,0.47381,1.8253e+06,160.13,1,24.854,16.754,0,0
42.949,0.48282,1.8255e+06,159.81,1,24.927,16.827,0,0
43.078,0.49183,1.8258e+06,159.49,1,25,16.9,0,0
43.208,0.50084,1.8261e+06,159.17,1,25.073,16.973,0,0
43.337,0.50985,1.8263e+06,158.85,1,25.146,17.046,0,0
43.466,0.51886,1.8266e+06,158.53,1,25.219,17.119,0,0
43.596,0.52787,1.8269e+06,158.21,1,25.293,17.193,0,0
43.725,0.53688,1.8271e+06,157.89,1,25.366,17.266,0,0
43.855,0.54588,1.8274e+06,157.56,1,25.439,17.339,0,0
43.961,0.55436,1.8269e+06,157.26,1,25.512,17.412,0,0
44.041,0.56226,1.8256e+06,156.97,1,25.585,17.485,0,0
44.121,0.57016,1.8242e+06,156.68,1,25.658,17.558,0,0
44.202,0.57806,1.8229e+06,156.38,1,25.731,17.631,0,0
44.282,0.58595,1.8215e+06,156.09,1,25.804,17.704,0,0
44.362,0.59385,1.8202e+06,155.8,1,25.877,17.777,0,0
44.443,0.60175,1.8188e+06,155.51,1,25.951,17.851,0,0
44.523,0.60964,1.8175e+06,155.22,1,26.024,17.924,0,0
44.604,0.61754,1.8161e+06,154.93,1,26.097,17.997,0,0
44.665,0.62544,1.814e+06,154.63,1,26.17,18.07,0,0
44.679,0.63336,1.8101e+06,154.34,1,26.243,18.143,0,0
44.692,0.64127,1.8061e+06,154.04,1,26.316,18.216,0,0
44.706,0.64918,1.8022e+06,153.74,1,26.389,18.289,0,0
44.719,0.6571,1.7982e+06,153.44,1,26.462,18.362,0,0
44.733,0.66501,1.7943e+06,153.15,1,26.535,18.435,0,0
44.746,0.67292,1.7903e+06,152.85,1,26.608,18.508,0,0
44.76,0.68083,1.7864e+06,152.55,1,26.681,18.581,0,0
44.774,0.68875,1.7824e+06,152.25,1,26.755,18.655,0,0
44.785,0.69668,1.7784e+06,151.95,1,26.828,18.728,0,0
44.722,0.70543,1.7709e+06,151.59,1,26.901,18.801,0,0
44.66,0.71417,1.7633e+06,151.23,1,26.974,18.874,0,0
44.597,0.72292,1.7558e+06,150.86,1,27.047,18.947,0,0
44.534,0.73166,1.7482e+06,150.5,1,27.12,19.02,0,0
44.471,0.74041,1.7407e+06,150.13,1,27.193,19.093,0,0
44.408,0.74915,1.7332e+06,149.77,1,27.266,19.166,0,0
44.346,0.7579,1.7256e+06,149.4,1,27.339,19.239,0,0
44.283,0.76664,1.7181e+06,149.04,1,27.413,19.312,0,0
44.22,0.77539,1.7105e+06,148.68,1,27.486,19.386,0,0
44.091,0.78497,1.7003e+06,148.27,1,27.559,19.459,0,0
43.935,0.79489,1.689e+06,147.84,1,27.632,19.532,0,0
43.779,0.80482,1.6776e+06,147.42,1,27.705,19.605,0,0
43.622,0.81475,1.6663e+06,146.99,1,27.778,19.678,0,0
43.466,0.82467,1.6549e+06,146.56,1,27.851,19.751,0,0
