,Density,Eddy_Viscosity,Energy,Heat_Flux,Laminar_Viscosity,Mach,Momentum:0,Momentum:1,Momentum:2,Omega,Pressure,Pressure_Coefficient,Skin_Friction_Coefficient:0,Skin_Friction_Coefficient:1,Skin_Friction_Coefficient:2,Temperature,Turb_Kin_Energy,Y_Plus,vtkValidPointMask,arc_length,Points:0,Points:1,Points:2,Ptot,Z
0,7.7458,0.00019787,1961900.0,0,2.0093e-05,0.24363,704.83,2.4631,0,985300.0,771840.0,9532000.0,0,0,0,335.51,25.17,0,1,0.0,-0.0081,0,0,804861.2701128463,1.0004906145210477
1,7.7442,0.0001972,1961500.0,0,2.0092e-05,0.24446,707.07,1.831,0,946240.0,771620.0,9528800.0,0,0,0,335.48,24.113,0,1,7.31e-05,-0.0080269,0,0,804883.3657672056,1.0004892840273616
2,7.7425,0.00019653,1961200.0,0,2.0091e-05,0.2453,709.32,1.199,0,907170.0,771390.0,9525600.0,0,0,0,335.46,23.057,0,1,0.0001462,-0.0079538,0,0,804810.0161597134,1.0004883332931487
3,7.7409,0.00019586,1960800.0,0,2.009e-05,0.24614,711.56,0.56688,0,868100.0,771170.0,9522400.0,0,0,0,335.43,22.0,0,1,0.0002193,-0.0078807,0,0,804832.0125178861,1.0004870032644966
4,7.7392,0.00019519,1960400.0,0,2.0088e-05,0.24698,713.81,-0.065202,0,829040.0,770940.0,9519200.0,0,0,0,335.4,20.944,0,1,0.0002924,-0.0078076,0,0,804843.392394344,1.000485665806764
5,7.7376,0.00019452,1960100.0,0,2.0087e-05,0.24782,716.05,-0.69729,0,789970.0,770710.0,9515900.0,0,0,0,335.38,19.888,0,1,0.0003655,-0.0077345,0,0,804769.8725919917,1.0004847158754129
6,7.7359,0.00019385,1959700.0,0,2.0086e-05,0.24866,718.3,-1.3294,0,750910.0,770490.0,9512700.0,0,0,0,335.35,18.831,0,1,0.0004386,-0.0076614,0,0,804791.7229653898,1.000483386530202
7,7.734,0.00019322,1959300.0,0,2.0084e-05,0.24967,721.01,-1.8869,0,716510.0,770220.0,9508900.0,0,0,0,335.32,17.903,0,1,0.0005117,-0.0075883,0,0,804760.6197599282,1.0004820194423036
8,7.7311,0.00019273,1958700.0,0,2.0082e-05,0.25124,725.19,-2.2127,0,696660.0,769810.0,9503100.0,0,0,0,335.26,17.374,0,1,0.0005848,-0.0075152,0,0,804835.8368878519,1.0004793845935376
9,7.7283,0.00019223,1958100.0,0,2.008e-05,0.2528,729.36,-2.5385,0,676800.0,769400.0,9497300.0,0,0,0,335.21,16.846,0,1,0.0006579,-0.0074421,0,0,804826.022077043,1.0004771378956334
10,7.7254,0.00019173,1957500.0,0,2.0077e-05,0.25436,733.54,-2.8643,0,656950.0,768990.0,9491500.0,0,0,0,335.15,16.317,0,1,0.000731,-0.007369,0,0,804900.9482008275,1.0004745044067793
11,7.7226,0.00019124,1956800.0,0,2.0075e-05,0.25592,737.71,-3.19,0,637090.0,768590.0,9485800.0,0,0,0,335.1,15.788,0,1,0.0008041,-0.0072959,0,0,804901.4139755187,1.0004722667095711
12,7.7198,0.00019074,1956200.0,0,2.0072e-05,0.25749,741.89,-3.5158,0,617240.0,768180.0,9480000.0,0,0,0,335.04,15.259,0,1,0.0008772,-0.0072228,0,0,804976.0547361027,1.0004696345548556
13,7.7169,0.00019024,1955600.0,0,2.007e-05,0.25905,746.06,-3.8416,0,597380.0,767770.0,9474200.0,0,0,0,334.99,14.731,0,1,0.0009503,-0.0071497,0,0,804965.5931223426,1.00046739088784
14,7.7119,0.0001897,1954400.0,0,2.0066e-05,0.26105,751.25,-4.105,0,578490.0,767090.0,9464500.0,0,0,0,334.91,14.231,0,1,0.0010234,-0.0070766,0,0,804922.9969636622,1.0004637849738538
15,7.7045,0.00018911,1952700.0,0,2.0062e-05,0.26352,757.5,-4.3025,0,560610.0,766120.0,9450700.0,0,0,0,334.81,13.763,0,1,0.0010965,-0.0070035,0,0,804741.4227586421,1.0004591928623376
16,7.6971,0.00018852,1950900.0,0,2.0057e-05,0.26599,763.76,-4.5001,0,542720.0,765150.0,9437000.0,0,0,0,334.7,13.295,0,1,0.0011696,-0.0069304,0,0,804643.8312081336,1.0004542175260212
17,7.6898,0.00018795,1949100.0,0,2.0052e-05,0.26853,770.2,-4.6794,0,525390.0,764190.0,9423300.0,0,0,0,334.6,12.841,0,1,0.0012427,-0.0068573,0,0,804470.8990546383,1.000449642165242
18,7.6832,0.00018749,1947700.0,0,2.0048e-05,0.27157,778.11,-4.7084,0,512600.0,763280.0,9410400.0,0,0,0,334.49,12.51,0,1,0.0013158,-0.0067842,0,0,804435.3585624289,1.0004447191345736
19,7.6765,0.00018703,1946300.0,0,2.0043e-05,0.27462,786.03,-4.7374,0,499820.0,762380.0,9397600.0,0,0,0,334.39,12.179,0,1,0.0013889,-0.0067111,0,0,804324.6049504599,1.0004401954840163
20,7.6699,0.00018657,1944900.0,0,2.0038e-05,0.27766,793.94,-4.7665,0,487030.0,761470.0,9384700.0,0,0,0,334.28,11.848,0,1,0.001462,-0.006638,0,0,804287.3499970837,1.0004352805269856
21,7.6621,0.00018617,1943200.0,0,2.0032e-05,0.28125,803.2,-4.7457,0,476980.0,760400.0,9369500.0,0,0,0,334.15,11.59,0,1,0.0015351,-0.0065649,0,0,804248.0611891006,1.0004294809379133
22,7.6538,0.00018579,1941400.0,0,2.0026e-05,0.28503,812.96,-4.7066,0,467940.0,759260.0,9353300.0,0,0,0,334.01,11.359,0,1,0.0016082,-0.0064918,0,0,804217.6297580844,1.0004232499484536
23,7.6455,0.00018541,1939700.0,0,2.002e-05,0.28882,822.71,-4.6674,0,458900.0,758120.0,9337200.0,0,0,0,333.87,11.129,0,1,0.0016813,-0.0064187,0,0,804185.8602061528,1.0004170252629476
24,7.6366,0.00018501,1937700.0,0,2.0013e-05,0.29264,832.45,-4.5391,0,449190.0,756910.0,9320000.0,0,0,0,333.72,10.883,0,1,0.0017544,-0.0063456,0,0,804162.6272838585,1.0004103706909155
25,7.6265,0.00018459,1935500.0,0,2.0006e-05,0.2965,842.14,-4.246,0,438250.0,755570.0,9300800.0,0,0,0,333.57,10.608,0,1,0.0018275,-0.0062725,0,0,803997.7956593361,1.0004036365876472
26,7.6171,0.00018425,1933500.0,0,1.9999e-05,0.30082,853.12,-4.0945,0,429390.0,754260.0,9282200.0,0,0,0,333.41,10.387,0,1,0.0019006,-0.0061994,0,0,803948.6312557792,1.0003965422366201
27,7.608,0.00018395,1931600.0,0,1.9991e-05,0.30536,864.76,-4.0151,0,421590.0,752970.0,9263900.0,0,0,0,333.24,10.194,0,1,0.0019737,-0.0061263,0,0,804004.5795803029,1.0003890799105257
28,7.5948,0.00018361,1928800.0,0,1.9981e-05,0.31073,878.12,-3.9905,0,413290.0,751170.0,9238500.0,0,0,0,333.02,9.9915,0,1,0.0020468,-0.0060532,0,0,803932.9978615347,1.0003793511599168
29,7.5819,0.00018327,1926000.0,0,1.9972e-05,0.31604,891.36,-3.9444,0,405110.0,749410.0,9213500.0,0,0,0,332.8,9.7926,0,1,0.0021199,-0.0059801,0,0,803901.4342297151,1.0003696636471815
30,7.5699,0.00018298,1923500.0,0,1.9962e-05,0.32119,904.16,-3.8398,0,397260.0,747760.0,9190000.0,0,0,0,332.59,9.6027,0,1,0.002193,-0.005907,0,0,803900.9309316311,1.000360449241837
31,7.5569,0.00018269,1920700.0,0,1.9952e-05,0.32648,917.14,-3.7407,0,390290.0,745980.0,9164700.0,0,0,0,332.37,9.4351,0,1,0.0022661,-0.0058339,0,0,803841.2415457515,1.0003507794914035
32,7.5432,0.0001824,1917700.0,0,1.9942e-05,0.33185,930.25,-3.6453,0,383900.0,744110.0,9138200.0,0,0,0,332.14,9.2828,0,1,0.0023392,-0.0057608,0,0,803765.2690359947,1.000340682016037
33,7.5288,0.00018217,1914700.0,0,1.993e-05,0.33789,944.98,-3.5888,0,378120.0,742110.0,9109800.0,0,0,0,331.88,9.1491,0,1,0.0024123,-0.0056877,0,0,803799.777816359,1.0003293545755712
34,7.5139,0.00018195,1911500.0,0,1.9918e-05,0.34406,959.94,-3.5396,0,372270.0,740040.0,9080300.0,0,0,0,331.61,9.0147,0,1,0.0024854,-0.0056146,0,0,803838.8066036832,1.000317616310698
35,7.4969,0.00018173,1907800.0,0,1.9905e-05,0.35045,975.12,-3.5019,0,365930.0,737720.0,9047500.0,0,0,0,331.33,8.8703,0,1,0.0025585,-0.0055415,0,0,803683.3211696503,1.000305371302862
36,7.4802,0.00018152,1904200.0,0,1.9892e-05,0.35685,990.28,-3.4424,0,360670.0,735430.0,9015000.0,0,0,0,331.04,8.752,0,1,0.0026316,-0.0054684,0,0,803640.8376682459,1.0002927787342741
37,7.4637,0.00018131,1900700.0,0,1.9879e-05,0.36326,1005.4,-3.3634,0,356370.0,733170.0,8982800.0,0,0,0,330.75,8.6572,0,1,0.0027047,-0.0053953,0,0,803625.9317205576,1.0002802287453838
38,7.4457,0.00018113,1897000.0,0,1.9865e-05,0.3704,1022.2,-2.8726,0,352480.0,730700.0,8947700.0,0,0,0,330.43,8.5748,0,1,0.0027778,-0.0053222,0,0,803629.526421948,1.0002664229765208
39,7.4226,0.00018097,1892000.0,0,1.9848e-05,0.37826,1040.1,-3.0646,0,348980.0,727610.0,8903800.0,0,0,0,330.06,8.5085,0,1,0.0028509,-0.0052491,0,0,803363.7175974223,1.0002503883736156
40,7.4009,0.00018089,1887300.0,0,1.9829e-05,0.38662,1059.3,-2.6226,0,344780.0,724590.0,8860900.0,0,0,0,329.64,8.4269,0,1,0.002924,-0.005176,0,0,803596.1257251236,1.0002324706919166
41,7.3764,0.00018072,1881700.0,0,1.981e-05,0.39436,1076.2,-3.2423,0,339150.0,721230.0,8813200.0,0,0,0,329.21,8.3093,0,1,0.0029971,-0.0051029,0,0,803521.8122314414,1.0002140588745696
42,7.3567,0.00018054,1877500.0,0,1.9793e-05,0.40166,1092.6,-3.4619,0,336070.0,718520.0,8774800.0,0,0,0,328.85,8.2471,0,1,0.0030702,-0.0050298,0,0,803566.3939433558,1.0001987333487072
43,7.3339,0.00018034,1872600.0,0,1.9775e-05,0.40972,1110.3,-3.8414,0,333500.0,715390.0,8730300.0,0,0,0,328.44,8.2006,0,1,0.0031433,-0.0049567,0,0,803557.5940800946,1.0001813103037882
44,7.3099,0.00018014,1867400.0,0,1.9755e-05,0.41802,1128.5,-4.1796,0,330980.0,712110.0,8683800.0,0,0,0,328.0,8.1566,0,1,0.0032164,-0.0048836,0,0,803626.0108652615,1.0001627002724258
45,7.2833,0.00018005,1861600.0,0,1.9734e-05,0.4266,1146.6,-3.6275,0,327400.0,708520.0,8632800.0,0,0,0,327.55,8.0939,0,1,0.0032895,-0.0048105,0,0,803413.0790221358,1.0001436494236953
46,7.2555,0.00017995,1855600.0,0,1.9712e-05,0.43574,1165.8,-3.4691,0,324690.0,704750.0,8579200.0,0,0,0,327.05,8.0528,0,1,0.0033626,-0.0047374,0,0,803410.9511904928,1.0001226353638841
47,7.226,0.0001798,1849200.0,0,1.9688e-05,0.44531,1185.6,-3.4118,0,322110.0,700740.0,8522300.0,0,0,0,326.52,8.0149,0,1,0.0034357,-0.0046643,0,0,803374.4707160052,1.0001004442661905
48,7.1966,0.00017962,1842800.0,0,1.9663e-05,0.45494,1205.3,-3.4584,0,319830.0,696720.0,8465200.0,0,0,0,325.97,7.9826,0,1,0.0035088,-0.0045912,0,0,803481.315088645,1.0000775474391526
49,7.1658,0.00017952,1836100.0,0,1.9638e-05,0.46453,1224.5,-3.3881,0,316280.0,692560.0,8406200.0,0,0,0,325.42,7.9234,0,1,0.0035819,-0.0045181,0,0,803404.719607417,1.0000547134095512
50,7.1366,0.00017935,1829800.0,0,1.9614e-05,0.47362,1242.3,-3.0186,0,313940.0,688630.0,8350300.0,0,0,0,324.89,7.8895,0,1,0.003655,-0.004445,0,0,803403.7788174582,1.000032820664938
51,7.1038,0.0001792,1822700.0,0,1.9587e-05,0.48387,1262.2,-2.9168,0,312170.0,684200.0,8287300.0,0,0,0,324.29,7.8746,0,1,0.0037281,-0.0043719,0,0,803402.4593540533,1.0000081499289755
52,7.0676,0.00017905,1814800.0,0,1.9557e-05,0.49462,1282.4,-2.9353,0,309830.0,679340.0,8218500.0,0,0,0,323.64,7.849,0,1,0.0038012,-0.0042988,0,0,803300.6449051733,0.9999815507515931
53,7.0323,0.00017886,1807000.0,0,1.9527e-05,0.50516,1301.8,-2.8997,0,307800.0,674600.0,8151000.0,0,0,0,322.99,7.8287,0,1,0.0038743,-0.0042257,0,0,803313.2796720401,0.9999551053244623
54,6.9949,0.00017871,1798900.0,0,1.9495e-05,0.51646,1322.4,-2.8228,0,305880.0,669530.0,8079100.0,0,0,0,322.28,7.815,0,1,0.0039474,-0.0041526,0,0,803424.886494045,0.9999263802631184
55,6.9558,0.00017838,1790200.0,0,1.9462e-05,0.52743,1341.5,-2.7927,0,303840.0,664310.0,8004900.0,0,0,0,321.56,7.792,0,1,0.0040205,-0.0040795,0,0,803408.2508323003,0.9998974167348302
56,6.918,0.00017814,1781900.0,0,1.943e-05,0.53839,1360.4,-2.6866,0,302080.0,659240.0,7932900.0,0,0,0,320.85,7.7787,0,1,0.0040936,-0.0040064,0,0,803452.1631804894,0.9998690220620603
57,6.8776,0.00017787,1773000.0,0,1.9395e-05,0.54982,1379.5,-2.6369,0,300470.0,653850.0,7856500.0,0,0,0,320.1,7.7708,0,1,0.0041667,-0.0039333,0,0,803418.5927113162,0.9998392138574167
58,6.8355,0.00017755,1763800.0,0,1.9359e-05,0.56157,1398.7,-2.5804,0,298970.0,648240.0,7776800.0,0,0,0,319.31,7.7658,0,1,0.0042398,-0.0038602,0,0,803424.8794118669,0.9998080148124338
59,6.792,0.00017721,1754200.0,0,1.9322e-05,0.57353,1417.6,-2.5869,0,297540.0,642480.0,7695000.0,0,0,0,318.5,7.763,0,1,0.0043129,-0.0037871,0,0,803375.9653967712,0.9997762498273322
60,6.7477,0.00017683,1744400.0,0,1.9283e-05,0.58572,1436.3,-2.4834,0,296250.0,636600.0,7611500.0,0,0,0,317.66,7.7635,0,1,0.004386,-0.003714,0,0,803394.7315170976,0.9997435266673712
61,6.7019,0.00017637,1734300.0,0,1.9243e-05,0.59797,1454.5,-2.4408,0,295010.0,630580.0,7526000.0,0,0,0,316.8,7.7634,0,1,0.0044591,-0.0036409,0,0,803362.5606172495,0.9997102775483683
62,6.6568,0.00017584,1724400.0,0,1.9205e-05,0.60984,1471.4,-2.3133,0,293950.0,624670.0,7442100.0,0,0,0,315.96,7.7644,0,1,0.0045322,-0.0035678,0,0,803240.7082902546,0.9996780668657366
63,6.6097,0.00017535,1714000.0,0,1.9163e-05,0.62261,1489.5,-1.5873,0,293240.0,618470.0,7354000.0,0,0,0,315.05,7.7791,0,1,0.0046053,-0.0034947,0,0,803315.307051346,0.999643374174591
64,6.556,0.00017484,1702000.0,0,1.9115e-05,0.63652,1507.9,-1.8462,0,292150.0,611440.0,7254100.0,0,0,0,314.02,7.7911,0,1,0.0046784,-0.0034216,0,0,803313.0657400227,0.9996044611872906
65,6.5043,0.0001742,1690400.0,0,1.907e-05,0.64942,1524.0,-2.3242,0,290770.0,604730.0,7158900.0,0,0,0,313.05,7.7876,0,1,0.0047515,-0.0033485,0,0,803120.2966553265,0.9995682171567437
66,6.4562,0.00017363,1679700.0,0,1.9027e-05,0.66183,1539.3,-1.817,0,289660.0,598470.0,7070000.0,0,0,0,312.11,7.79,0,1,0.0048246,-0.0032754,0,0,803193.2904185627,0.9995332791370595
67,6.4026,0.00017304,1667800.0,0,1.8978e-05,0.67552,1555.5,-1.3283,0,288910.0,591530.0,6971400.0,0,0,0,311.07,7.808,0,1,0.0048977,-0.0032023,0,0,803180.980704186,0.9994950027907676
68,6.3471,0.00017231,1655400.0,0,1.8928e-05,0.68945,1571.1,-1.2804,0,288070.0,584360.0,6869600.0,0,0,0,309.99,7.8202,0,1,0.0049708,-0.0031292,0,0,803134.5931969056,0.9994556484538574
69,6.2916,0.00017156,1642900.0,0,1.8877e-05,0.70335,1585.9,-1.2269,0,287190.0,577200.0,6768000.0,0,0,0,308.89,7.8309,0,1,0.0050439,-0.0030561,0,0,803197.8953036441,0.9994158903494562
70,6.2348,0.00017075,1630200.0,0,1.8825e-05,0.71746,1600.2,-1.1684,0,286350.0,569910.0,6664400.0,0,0,0,307.77,7.8423,0,1,0.005117,-0.002983,0,0,803170.9934066116,0.9993758690465704
71,6.1768,0.00016991,1617100.0,0,1.8771e-05,0.73177,1613.9,-1.1274,0,285340.0,562500.0,6559200.0,0,0,0,306.62,7.8493,0,1,0.0051901,-0.0029099,0,0,803152.7281818578,0.999335194687091
72,6.1191,0.00016901,1604100.0,0,1.8717e-05,0.74594,1626.7,-0.98372,0,284630.0,555150.0,6454800.0,0,0,0,305.47,7.8617,0,1,0.0052632,-0.0028368,0,0,803121.0940568325,0.9992949603384683
73,6.0594,0.00016807,1590600.0,0,1.8661e-05,0.76041,1638.9,-0.93027,0,283770.0,547580.0,6347300.0,0,0,0,304.27,7.8712,0,1,0.0053363,-0.0027637,0,0,803126.6940441531,0.9992534025826917
74,5.999,0.00016709,1576900.0,0,1.8603e-05,0.77499,1650.3,-0.8791,0,282940.0,539950.0,6239000.0,0,0,0,303.05,7.881,0,1,0.0054094,-0.0026906,0,0,803117.8879595507,0.9992116396487456
75,5.9376,0.00016606,1563000.0,0,1.8545e-05,0.78973,1661.1,-0.82319,0,282140.0,532230.0,6129400.0,0,0,0,301.81,7.891,0,1,0.0054825,-0.0026175,0,0,803043.258746213,0.9991697448078766
76,5.8755,0.00016499,1548800.0,0,1.8485e-05,0.80457,1671.1,-0.76652,0,281360.0,524450.0,6019000.0,0,0,0,300.54,7.9009,0,1,0.0055556,-0.0025444,0,0,803035.530616991,0.9991272863981937
77,5.8126,0.00016387,1534500.0,0,1.8424e-05,0.81954,1680.4,-0.71106,0,280600.0,516620.0,5907700.0,0,0,0,299.25,7.9109,0,1,0.0056287,-0.0024713,0,0,803010.4425038385,0.9990847058428012
78,5.7492,0.00016272,1520000.0,0,1.8362e-05,0.8346,1688.9,-0.65763,0,279850.0,508740.0,5795800.0,0,0,0,297.94,7.9207,0,1,0.0057018,-0.0023982,0,0,802961.8434793693,0.9990420361097894
79,5.6852,0.00016153,1505300.0,0,1.8298e-05,0.84977,1696.6,-0.60775,0,279070.0,500830.0,5683400.0,0,0,0,296.61,7.9294,0,1,0.0057749,-0.0023251,0,0,802915.5924090175,0.9989992745842085
80,5.62,0.00016032,1490300.0,0,1.8234e-05,0.86512,1703.5,-0.58613,0,278110.0,492820.0,5569700.0,0,0,0,295.25,7.9334,0,1,0.005848,-0.002252,0,0,802846.8964753234,0.9989561593912606
81,5.5558,0.000159,1475500.0,0,1.8169e-05,0.88028,1709.6,-0.39709,0,277710.0,484950.0,5458000.0,0,0,0,293.9,7.9478,0,1,0.0059211,-0.0021789,0,0,802761.8179051684,0.9989139681412584
82,5.4895,0.00015764,1460200.0,0,1.8101e-05,0.89596,1715.2,-0.34294,0,277390.0,476870.0,5343200.0,0,0,0,292.49,7.9657,0,1,0.0059942,-0.0021058,0,0,802746.3417647375,0.9988704272514672
83,5.4238,0.00015631,1444900.0,0,1.8034e-05,0.9115,1719.9,-0.31026,0,276630.0,468880.0,5229700.0,0,0,0,291.07,7.9721,0,1,0.0060673,-0.0020327,0,0,802816.7353082343,0.9988270918815245
84,5.3577,0.00015495,1429600.0,0,1.7965e-05,0.92707,1723.7,-0.25108,0,275890.0,460900.0,5116500.0,0,0,0,289.65,7.9788,0,1,0.0061404,-0.0019596,0,0,802736.462091534,0.9987845967141723
85,5.291,0.00015354,1414100.0,0,1.7895e-05,0.94279,1726.8,-0.18968,0,275210.0,452890.0,5002700.0,0,0,0,288.2,7.9864,0,1,0.0062135,-0.0018865,0,0,802721.9887337274,0.9987417620449328
86,5.2242,0.00015211,1398400.0,0,1.7825e-05,0.95857,1729.1,-0.13024,0,274550.0,444900.0,4889200.0,0,0,0,286.74,7.9941,0,1,0.0062866,-0.0018134,0,0,802660.5996215099,0.998699367264185
87,5.1572,0.00015066,1382800.0,0,1.7753e-05,0.97442,1730.7,-0.07147,0,273900.0,436930.0,4776100.0,0,0,0,285.26,8.0015,0,1,0.0063597,-0.0017403,0,0,802646.5737508566,0.9986569967740618
88,5.0901,0.00014917,1367000.0,0,1.7681e-05,0.99033,1731.5,-0.013643,0,273270.0,428990.0,4663300.0,0,0,0,283.77,8.0085,0,1,0.0064328,-0.0016672,0,0,802595.3359595056,0.9986150874187919
89,5.023,0.00014767,1351200.0,0,1.7607e-05,1.0063,1731.6,0.046996,0,272630.0,421080.0,4551000.0,0,0,0,282.26,8.015,0,1,0.0065059,-0.0015941,0,0,802602.3809347427,0.9985732187161666
90,4.9558,0.00014614,1335400.0,0,1.7533e-05,1.0223,1730.9,0.10111,0,271950.0,413220.0,4439400.0,0,0,0,280.75,8.0196,0,1,0.006579,-0.001521,0,0,802491.8791165692,0.9985322381304408
91,4.8885,0.00014461,1319500.0,0,1.7459e-05,1.0383,1729.5,0.13439,0,271130.0,405390.0,4328200.0,0,0,0,279.22,8.0202,0,1,0.0066521,-0.0014479,0,0,802400.194186237,0.998491342816601
92,4.8217,0.00014303,1303600.0,0,1.7383e-05,1.0544,1727.5,0.17727,0,270580.0,397650.0,4218300.0,0,0,0,277.68,8.0265,0,1,0.0067252,-0.0013748,0,0,802323.172659046,0.9984507800925564
93,4.755,0.00014145,1287800.0,0,1.7308e-05,1.0704,1724.7,0.22498,0,270010.0,389970.0,4109200.0,0,0,0,276.14,8.0321,0,1,0.0067983,-0.0013017,0,0,802081.0676209051,0.9984111192002842
94,4.6884,0.00013985,1271900.0,0,1.7231e-05,1.0865,1721.3,0.27147,0,269440.0,382350.0,4001100.0,0,0,0,274.59,8.0369,0,1,0.0068714,-0.0012286,0,0,801755.4223999189,0.9983719260216251
95,4.6221,0.00013824,1256000.0,0,1.7154e-05,1.1026,1717.2,0.31786,0,268860.0,374810.0,3893900.0,0,0,0,273.03,8.0413,0,1,0.0069445,-0.0011555,0,0,801374.311979615,0.9983331289793094
96,4.5561,0.00013663,1240200.0,0,1.7076e-05,1.1188,1712.5,0.36403,0,268290.0,367330.0,3787600.0,0,0,0,271.46,8.0456,0,1,0.0070176,-0.0010824,0,0,800878.7246496464,0.9982948232298257
97,4.4902,0.00013501,1224400.0,0,1.6998e-05,1.135,1707.2,0.4098,0,267720.0,359910.0,3682300.0,0,0,0,269.88,8.0498,0,1,0.0070907,-0.0010093,0,0,800257.639886614,0.9982570252521272
98,4.4245,0.00013338,1208500.0,0,1.6919e-05,1.1513,1701.3,0.45513,0,267160.0,352560.0,3577900.0,0,0,0,268.29,8.054,0,1,0.0071638,-0.0009362,0,0,799517.5048366073,0.9982197027963077
99,4.3589,0.00013175,1192700.0,0,1.6839e-05,1.1676,1694.8,0.49973,0,266610.0,345270.0,3474400.0,0,0,0,266.7,8.0584,0,1,0.0072369,-0.0008631,0,0,798523.5946466657,0.9981833803017953
100,4.2936,0.00013011,1176800.0,0,1.6758e-05,1.184,1687.7,0.54278,0,266070.0,338040.0,3371800.0,0,0,0,265.09,8.063,0,1,0.00731,-0.00079,0,0,797470.3863277101,0.9981471558960722
101,4.2285,0.00012847,1161000.0,0,1.6677e-05,1.2005,1680.1,0.58271,0,265540.0,330890.0,3270200.0,0,0,0,263.47,8.0679,0,1,0.0073831,-0.0007169,0,0,796290.1881265313,0.9981113965599897
102,4.1639,0.00012683,1145300.0,0,1.6595e-05,1.2169,1672.0,0.61791,0,265020.0,323820.0,3169900.0,0,0,0,261.85,8.0728,0,1,0.0074562,-0.0006438,0,0,794885.8244285546,0.9980765746589578
103,4.1,0.0001252,1129700.0,0,1.6514e-05,1.2333,1663.4,0.64008,0,264510.0,316890.0,3071400.0,0,0,0,260.24,8.0774,0,1,0.0075293,-0.0005707,0,0,793289.6967920326,0.9980428037188579
104,4.0366,0.00012358,1114100.0,0,1.6431e-05,1.2498,1654.3,0.61527,0,264020.0,310040.0,2974200.0,0,0,0,258.62,8.0828,0,1,0.0076024,-0.0004976,0,0,791555.6766761425,0.9980094978728951
105,3.9759,0.00012199,1099200.0,0,1.6351e-05,1.2656,1645.1,0.60384,0,263390.0,303520.0,2881600.0,0,0,0,257.04,8.0812,0,1,0.0076755,-0.0004245,0,0,789888.4506305037,0.997977369976681
106,3.9197,0.00012055,1085400.0,0,1.6277e-05,1.2805,1636.1,1.3732,0,262500.0,297550.0,2796700.0,0,0,0,255.59,8.0731,0,1,0.0077486,-0.0003514,0,0,787975.3560319673,0.9979490080678661
107,3.8622,0.00011901,1071200.0,0,1.6199e-05,1.296,1626.8,1.3902,0,262190.0,291430.0,2709900.0,0,0,0,254.06,8.079,0,1,0.0078217,-0.0002783,0,0,786074.7484014537,0.9979191284250702
