"Density","Mach","Pressure","Temperature","vtkValidPointMask","arc_length","Points:0","Points:1","Points:2"
13.465,3.1617,2.0674e+05,61.604,1,0,10,0,0
13.433,3.1637,2.0604e+05,61.534,1,0.016,10,0.016,0
13.4,3.1658,2.0534e+05,61.463,1,0.032,10,0.032,0
13.368,3.1679,2.0464e+05,61.393,1,0.048,10,0.048,0
13.335,3.1699,2.0394e+05,61.323,1,0.064,10,0.064,0
13.303,3.172,2.0324e+05,61.252,1,0.08,10,0.08,0
13.27,3.1741,2.0253e+05,61.182,1,0.096,10,0.096,0
13.238,3.1761,2.0183e+05,61.111,1,0.112,10,0.112,0
13.205,3.1782,2.0113e+05,61.041,1,0.128,10,0.128,0
13.173,3.1803,2.0043e+05,60.971,1,0.144,10,0.144,0
13.14,3.1823,1.9973e+05,60.9,1,0.16,10,0.16,0
13.107,3.1844,1.9903e+05,60.83,1,0.176,10,0.176,0
13.075,3.1865,1.9832e+05,60.76,1,0.192,10,0.192,0
13.042,3.1886,1.9762e+05,60.689,1,0.208,10,0.208,0
13.01,3.1906,1.9692e+05,60.619,1,0.224,10,0.224,0
12.977,3.1927,1.9622e+05,60.548,1,0.24,10,0.24,0
12.945,3.1948,1.9552e+05,60.478,1,0.256,10,0.256,0
12.912,3.1968,1.9482e+05,60.408,1,0.272,10,0.272,0
12.88,3.1989,1.9411e+05,60.337,1,0.288,10,0.288,0
12.844,3.201,1.9336e+05,60.265,1,0.304,10,0.304,0
12.809,3.2031,1.926e+05,60.193,1,0.32,10,0.32,0
12.774,3.2052,1.9184e+05,60.121,1,0.336,10,0.336,0
12.738,3.2073,1.9109e+05,60.049,1,0.352,10,0.352,0
12.718,3.2088,1.9064e+05,60.004,1,0.368,10,0.368,0
12.706,3.21,1.9034e+05,59.973,1,0.384,10,0.384,0
12.693,3.2111,1.9005e+05,59.942,1,0.4,10,0.4,0
12.681,3.2123,1.8975e+05,59.91,1,0.416,10,0.416,0
12.669,3.2135,1.8946e+05,59.879,1,0.432,10,0.432,0
12.657,3.2147,1.8917e+05,59.848,1,0.448,10,0.448,0
12.647,3.2158,1.8893e+05,59.818,1,0.464,10,0.464,0
12.636,3.217,1.8869e+05,59.788,1,0.48,10,0.48,0
12.626,3.2182,1.8845e+05,59.758,1,0.496,10,0.496,0
12.616,3.2193,1.8821e+05,59.728,1,0.512,10,0.512,0
12.606,3.2205,1.8797e+05,59.698,1,0.528,10,0.528,0
12.595,3.2216,1.8773e+05,59.667,1,0.544,10,0.544,0
12.585,3.2228,1.8749e+05,59.637,1,0.56,10,0.56,0
12.575,3.2239,1.8725e+05,59.607,1,0.576,10,0.576,0
12.565,3.2251,1.8701e+05,59.577,1,0.592,10,0.592,0
12.554,3.2263,1.8677e+05,59.547,1,0.608,10,0.608,0
12.545,3.2274,1.8655e+05,59.52,1,0.624,10,0.624,0
12.542,3.2281,1.8646e+05,59.507,1,0.64,10,0.64,0
12.539,3.2288,1.8637e+05,59.495,1,0.656,10,0.656,0
12.535,3.2296,1.8628e+05,59.482,1,0.672,10,0.672,0
12.532,3.2303,1.8619e+05,59.47,1,0.688,10,0.688,0
12.529,3.2311,1.861e+05,59.457,1,0.704,10,0.704,0
12.525,3.2318,1.8601e+05,59.445,1,0.72,10,0.72,0
12.522,3.2326,1.8592e+05,59.434,1,0.736,10,0.736,0
12.518,3.2332,1.8584e+05,59.425,1,0.752,10,0.752,0
12.514,3.2339,1.8575e+05,59.416,1,0.768,10,0.768,0
12.511,3.2346,1.8567e+05,59.408,1,0.784,10,0.784,0
12.507,3.2353,1.8559e+05,59.399,1,0.8,10,0.8,0
12.503,3.236,1.855e+05,59.39,1,0.816,10,0.816,0
12.499,3.2367,1.8542e+05,59.381,1,0.832,10,0.832,0
12.497,3.2373,1.8539e+05,59.375,1,0.848,10,0.848,0
12.496,3.2379,1.8536e+05,59.371,1,0.864,10,0.864,0
12.495,3.2385,1.8534e+05,59.366,1,0.88,10,0.88,0
12.494,3.2391,1.8532e+05,59.361,1,0.896,10,0.896,0
12.493,3.2397,1.853e+05,59.357,1,0.912,10,0.912,0
12.492,3.2403,1.8528e+05,59.352,1,0.928,10,0.928,0
12.494,3.2407,1.8532e+05,59.354,1,0.944,10,0.944,0
12.502,3.2406,1.8545e+05,59.367,1,0.96,10,0.96,0
12.51,3.2406,1.8559e+05,59.38,1,0.976,10,0.976,0
12.517,3.2405,1.8573e+05,59.394,1,0.992,10,0.992,0
12.525,3.2405,1.8586e+05,59.407,1,1.008,10,1.008,0
12.537,3.24,1.8609e+05,59.43,1,1.024,10,1.024,0
12.549,3.2396,1.8632e+05,59.453,1,1.04,10,1.04,0
12.561,3.2391,1.8655e+05,59.476,1,1.056,10,1.056,0
12.573,3.2387,1.8678e+05,59.499,1,1.072,10,1.072,0
12.585,3.2382,1.8701e+05,59.522,1,1.088,10,1.088,0
12.597,3.2378,1.8725e+05,59.545,1,1.104,10,1.104,0
12.61,3.2373,1.8749e+05,59.569,1,1.12,10,1.12,0
12.623,3.2368,1.8775e+05,59.593,1,1.136,10,1.136,0
12.636,3.2362,1.8801e+05,59.617,1,1.152,10,1.152,0
12.666,3.2344,1.886e+05,59.673,1,1.168,10,1.168,0
12.713,3.2313,1.8951e+05,59.761,1,1.184,10,1.184,0
12.759,3.2282,1.9043e+05,59.849,1,1.2,10,1.2,0
12.806,3.2251,1.9134e+05,59.937,1,1.216,10,1.216,0
12.852,3.222,1.9226e+05,60.025,1,1.232,10,1.232,0
12.898,3.2189,1.9317e+05,60.113,1,1.248,10,1.248,0
12.973,3.2136,1.9471e+05,60.261,1,1.264,10,1.264,0
13.075,3.2062,1.9682e+05,60.464,1,1.28,10,1.28,0
13.177,3.1989,1.9893e+05,60.667,1,1.296,10,1.296,0
13.279,3.1915,2.0104e+05,60.87,1,1.312,10,1.312,0
13.38,3.1842,2.0315e+05,61.073,1,1.328,10,1.328,0
13.482,3.1769,2.0526e+05,61.275,1,1.344,10,1.344,0
13.584,3.1695,2.0737e+05,61.478,1,1.36,10,1.36,0
13.703,3.1609,2.0987e+05,61.719,1,1.376,10,1.376,0
13.885,3.1476,2.1373e+05,62.094,1,1.392,10,1.392,0
14.066,3.1342,2.176e+05,62.468,1,1.408,10,1.408,0
14.328,3.1171,2.2342e+05,62.978,1,1.424,10,1.424,0
14.695,3.0949,2.3179e+05,63.665,1,1.44,10,1.44,0
15.061,3.0727,2.4016e+05,64.351,1,1.456,10,1.456,0
15.428,3.0505,2.4853e+05,65.038,1,1.472,10,1.472,0
15.795,3.0284,2.5691e+05,65.724,1,1.488,10,1.488,0
16.162,3.0062,2.6528e+05,66.41,1,1.504,10,1.504,0
16.514,2.9847,2.733e+05,67.072,1,1.52,10,1.52,0
16.836,2.9648,2.8055e+05,67.68,1,1.536,10,1.536,0
17.157,2.9449,2.878e+05,68.288,1,1.552,10,1.552,0
17.479,2.925,2.9505e+05,68.896,1,1.568,10,1.568,0
17.8,2.9051,3.023e+05,69.504,1,1.584,10,1.584,0
18.165,2.8829,3.1064e+05,70.191,1,1.6,10,1.6,0
18.53,2.8617,3.19e+05,70.859,1,1.616,10,1.616,0
18.907,2.843,3.2785e+05,71.489,1,1.632,10,1.632,0
19.391,2.823,3.3973e+05,72.233,1,1.648,10,1.648,0
19.874,2.8029,3.5162e+05,72.978,1,1.664,10,1.664,0
20.364,2.7832,3.6367e+05,73.721,1,1.68,10,1.68,0
20.855,2.7637,3.7581e+05,74.464,1,1.696,10,1.696,0
21.347,2.7441,3.8794e+05,75.207,1,1.712,10,1.712,0
21.839,2.7245,4.0008e+05,75.95,1,1.728,10,1.728,0
22.331,2.705,4.1222e+05,76.694,1,1.744,10,1.744,0
22.822,2.6854,4.2436e+05,77.437,1,1.76,10,1.76,0
23.314,2.6659,4.365e+05,78.18,1,1.776,10,1.776,0
23.806,2.6463,4.4864e+05,78.923,1,1.792,10,1.792,0
24.298,2.6267,4.6078e+05,79.666,1,1.808,10,1.808,0
24.79,2.6072,4.7292e+05,80.409,1,1.824,10,1.824,0
25.169,2.5956,4.8295e+05,80.907,1,1.84,10,1.84,0
25.548,2.5841,4.9296e+05,81.402,1,1.856,10,1.856,0
25.926,2.5726,5.0297e+05,81.898,1,1.872,10,1.872,0
26.305,2.5611,5.1299e+05,82.393,1,1.888,10,1.888,0
26.683,2.5496,5.23e+05,82.888,1,1.904,10,1.904,0
27.061,2.5381,5.3301e+05,83.384,1,1.92,10,1.92,0
27.44,2.5266,5.4302e+05,83.879,1,1.936,10,1.936,0
27.835,2.514,5.5344e+05,84.411,1,1.952,10,1.952,0
28.243,2.5006,5.6415e+05,84.969,1,1.968,10,1.968,0
28.65,2.4872,5.7486e+05,85.527,1,1.984,10,1.984,0
29.035,2.4751,5.8503e+05,86.043,1,2,10,2,0
29.333,2.4675,5.9317e+05,86.401,1,2.016,10,2.016,0
29.631,2.4599,6.013e+05,86.76,1,2.032,10,2.032,0
29.929,2.4523,6.0944e+05,87.118,1,2.048,10,2.048,0
30.227,2.4447,6.1757e+05,87.477,1,2.064,10,2.064,0
30.525,2.4371,6.2571e+05,87.836,1,2.08,10,2.08,0
30.816,2.4298,6.3365e+05,88.183,1,2.096,10,2.096,0
31.093,2.423,6.4126e+05,88.511,1,2.112,10,2.112,0
31.37,2.4161,6.4886e+05,88.839,1,2.128,10,2.128,0
31.647,2.4092,6.5646e+05,89.167,1,2.144,10,2.144,0
31.924,2.4024,6.6406e+05,89.495,1,2.16,10,2.16,0
32.201,2.3955,6.7166e+05,89.823,1,2.176,10,2.176,0
32.477,2.3887,6.7926e+05,90.15,1,2.192,10,2.192,0
32.754,2.3818,6.8686e+05,90.478,1,2.208,10,2.208,0
32.991,2.3761,6.9344e+05,90.754,1,2.224,10,2.224,0
33.178,2.3717,6.9873e+05,90.963,1,2.24,10,2.24,0
33.364,2.3674,7.0402e+05,91.172,1,2.256,10,2.256,0
33.551,2.3631,7.0931e+05,91.38,1,2.272,10,2.272,0
33.746,2.3585,7.1486e+05,91.601,1,2.288,10,2.288,0
33.942,2.3538,7.2042e+05,91.822,1,2.304,10,2.304,0
34.138,2.3491,7.2599e+05,92.043,1,2.32,10,2.32,0
34.334,2.3445,7.3155e+05,92.264,1,2.336,10,2.336,0
34.53,2.3398,7.3712e+05,92.485,1,2.352,10,2.352,0
34.729,2.335,7.4277e+05,92.711,1,2.368,10,2.368,0
34.931,2.3302,7.4848e+05,92.938,1,2.384,10,2.384,0
35.132,2.3254,7.5419e+05,93.166,1,2.4,10,2.4,0
35.333,2.3205,7.5989e+05,93.394,1,2.416,10,2.416,0
35.52,2.3161,7.652e+05,93.602,1,2.432,10,2.432,0
35.671,2.3127,7.6953e+05,93.764,1,2.448,10,2.448,0
35.822,2.3092,7.7387e+05,93.927,1,2.464,10,2.464,0
35.973,2.3057,7.782e+05,94.089,1,2.48,10,2.48,0
36.124,2.3022,7.8254e+05,94.251,1,2.496,10,2.496,0
36.275,2.2988,7.8687e+05,94.413,1,2.512,10,2.512,0
36.429,2.2952,7.9129e+05,94.579,1,2.528,10,2.528,0
36.584,2.2916,7.9578e+05,94.75,1,2.544,10,2.544,0
36.733,2.2885,8e+05,94.9,1,2.56,10,2.56,0
36.878,2.2858,8.0402e+05,95.037,1,2.576,10,2.576,0
37.023,2.283,8.0805e+05,95.173,1,2.592,10,2.592,0
37.168,2.2802,8.1208e+05,95.31,1,2.608,10,2.608,0
37.312,2.2774,8.1611e+05,95.447,1,2.624,10,2.624,0
37.457,2.2747,8.2014e+05,95.584,1,2.64,10,2.64,0
37.602,2.2719,8.2417e+05,95.721,1,2.656,10,2.656,0
37.748,2.269,8.2827e+05,95.861,1,2.672,10,2.672,0
37.896,2.2661,8.324e+05,96.004,1,2.688,10,2.688,0
38.044,2.2632,8.3653e+05,96.147,1,2.704,10,2.704,0
38.191,2.2602,8.4067e+05,96.29,1,2.72,10,2.72,0
38.339,2.2573,8.448e+05,96.433,1,2.736,10,2.736,0
38.485,2.2547,8.4877e+05,96.561,1,2.752,10,2.752,0
38.629,2.2524,8.5259e+05,96.677,1,2.768,10,2.768,0
38.773,2.2501,8.5641e+05,96.793,1,2.784,10,2.784,0
38.917,2.2477,8.6024e+05,96.909,1,2.8,10,2.8,0
39.062,2.2454,8.6406e+05,97.025,1,2.816,10,2.816,0
39.206,2.2431,8.6788e+05,97.141,1,2.832,10,2.832,0
39.35,2.2408,8.7171e+05,97.257,1,2.848,10,2.848,0
39.494,2.2385,8.7553e+05,97.373,1,2.864,10,2.864,0
39.639,2.2361,8.7935e+05,97.489,1,2.88,10,2.88,0
39.783,2.2338,8.8318e+05,97.605,1,2.896,10,2.896,0
39.927,2.2315,8.8698e+05,97.72,1,2.912,10,2.912,0
40.068,2.2295,8.9063e+05,97.825,1,2.928,10,2.928,0
40.21,2.2274,8.9429e+05,97.929,1,2.944,10,2.944,0
40.351,2.2254,8.9794e+05,98.034,1,2.96,10,2.96,0
40.484,2.2234,9.014e+05,98.132,1,2.976,10,2.976,0
40.604,2.2217,9.0457e+05,98.221,1,2.992,10,2.992,0
40.729,2.2199,9.0783e+05,98.311,1,3.008,10,3.008,0
40.859,2.2181,9.1119e+05,98.404,1,3.024,10,3.024,0
40.989,2.2163,9.1456e+05,98.497,1,3.04,10,3.04,0
41.119,2.2144,9.1793e+05,98.589,1,3.056,10,3.056,0
41.249,2.2126,9.2129e+05,98.682,1,3.072,10,3.072,0
41.38,2.2108,9.2466e+05,98.775,1,3.088,10,3.088,0
41.51,2.2089,9.2803e+05,98.868,1,3.104,10,3.104,0
41.64,2.2071,9.314e+05,98.96,1,3.12,10,3.12,0
41.77,2.2053,9.3476e+05,99.053,1,3.136,10,3.136,0
41.9,2.2035,9.3813e+05,99.146,1,3.152,10,3.152,0
42.031,2.2016,9.415e+05,99.239,1,3.168,10,3.168,0
42.161,2.1998,9.4486e+05,99.331,1,3.184,10,3.184,0
42.291,2.198,9.4823e+05,99.424,1,3.2,10,3.2,0
42.397,2.196,9.5129e+05,99.52,1,3.216,10,3.216,0
42.495,2.194,9.5427e+05,99.616,1,3.232,10,3.232,0
42.594,2.1921,9.5724e+05,99.712,1,3.248,10,3.248,0
42.693,2.1901,9.6022e+05,99.808,1,3.264,10,3.264,0
42.792,2.1881,9.6319e+05,99.904,1,3.28,10,3.28,0
42.89,2.1861,9.6616e+05,100,1,3.296,10,3.296,0
42.989,2.1841,9.6914e+05,100.1,1,3.312,10,3.312,0
43.088,2.1821,9.7211e+05,100.19,1,3.328,10,3.328,0
43.186,2.1801,9.7509e+05,100.29,1,3.344,10,3.344,0
43.301,2.1784,9.782e+05,100.38,1,3.36,10,3.36,0
43.418,2.1766,9.8133e+05,100.47,1,3.376,10,3.376,0
43.534,2.1748,9.8445e+05,100.55,1,3.392,10,3.392,0
43.595,2.172,9.8733e+05,100.68,1,3.408,10,3.408,0
43.653,2.1692,9.9018e+05,100.81,1,3.424,10,3.424,0
43.71,2.1663,9.9303e+05,100.94,1,3.44,10,3.44,0
43.767,2.1635,9.9589e+05,101.07,1,3.456,10,3.456,0
43.825,2.1606,9.9874e+05,101.2,1,3.472,10,3.472,0
43.882,2.1578,1.0016e+06,101.33,1,3.488,10,3.488,0
43.939,2.1549,1.0044e+06,101.46,1,3.504,10,3.504,0
43.996,2.152,1.0073e+06,101.59,1,3.52,10,3.52,0
44.048,2.149,1.0101e+06,101.72,1,3.536,10,3.536,0
44.064,2.1452,1.0129e+06,101.89,1,3.552,10,3.552,0
44.071,2.1411,1.0156e+06,102.06,1,3.568,10,3.568,0
44.078,2.137,1.0183e+06,102.24,1,3.584,10,3.584,0
44.085,2.133,1.0211e+06,102.41,1,3.6,10,3.6,0
44.092,2.1289,1.0238e+06,102.59,1,3.616,10,3.616,0
44.099,2.1249,1.0265e+06,102.76,1,3.632,10,3.632,0
44.106,2.1208,1.0292e+06,102.93,1,3.648,10,3.648,0
44.113,2.1167,1.032e+06,103.11,1,3.664,10,3.664,0
44.117,2.1126,1.0347e+06,103.28,1,3.68,10,3.68,0
44.074,2.107,1.0372e+06,103.5,1,3.696,10,3.696,0
44.031,2.1014,1.0397e+06,103.73,1,3.712,10,3.712,0
43.988,2.0958,1.0423e+06,103.95,1,3.728,10,3.728,0
43.945,2.0903,1.0448e+06,104.17,1,3.744,10,3.744,0
43.912,2.085,1.0474e+06,104.38,1,3.76,10,3.76,0
43.884,2.0798,1.05e+06,104.59,1,3.776,10,3.776,0
43.857,2.0747,1.0527e+06,104.8,1,3.792,10,3.792,0
43.829,2.0696,1.0553e+06,105,1,3.808,10,3.808,0
43.802,2.0644,1.0579e+06,105.21,1,3.824,10,3.824,0
43.715,2.0573,1.0604e+06,105.49,1,3.84,10,3.84,0
43.577,2.0485,1.0627e+06,105.82,1,3.856,10,3.856,0
43.44,2.0397,1.065e+06,106.14,1,3.872,10,3.872,0
43.309,2.0311,1.0673e+06,106.47,1,3.888,10,3.888,0
43.182,2.0227,1.0697e+06,106.78,1,3.904,10,3.904,0
43.055,2.0142,1.072e+06,107.1,1,3.92,10,3.92,0
42.908,2.005,1.0743e+06,107.44,1,3.936,10,3.936,0
42.63,1.9907,1.0764e+06,107.97,1,3.952,10,3.952,0
42.352,1.9765,1.0785e+06,108.5,1,3.968,10,3.968,0
42.073,1.9622,1.0805e+06,109.04,1,3.984,10,3.984,0
41.801,1.9482,1.0826e+06,109.56,1,4,10,4,0
41.557,1.9351,1.0849e+06,110.05,1,4.016,10,4.016,0
41.305,1.9218,1.0871e+06,110.55,1,4.032,10,4.032,0
40.847,1.8997,1.0887e+06,111.5,1,4.048,10,4.048,0
40.388,1.8776,1.0903e+06,112.45,1,4.064,10,4.064,0
39.929,1.8556,1.0919e+06,113.39,1,4.08,10,4.08,0
39.47,1.8335,1.0936e+06,114.34,1,4.096,10,4.096,0
39.048,1.8129,1.0954e+06,115.19,1,4.112,10,4.112,0
38.631,1.7925,1.0972e+06,116.02,1,4.128,10,4.128,0
38.214,1.7721,1.099e+06,116.85,1,4.144,10,4.144,0
37.797,1.7517,1.1008e+06,117.69,1,4.16,10,4.16,0
37.38,1.7313,1.1026e+06,118.52,1,4.176,10,4.176,0
36.809,1.7033,1.104e+06,119.94,1,4.192,10,4.192,0
36.201,1.6733,1.1053e+06,121.5,1,4.208,10,4.208,0
35.593,1.6434,1.1066e+06,123.06,1,4.224,10,4.224,0
34.985,1.6135,1.1079e+06,124.61,1,4.24,10,4.24,0
34.377,1.5835,1.1092e+06,126.17,1,4.256,10,4.256,0
33.769,1.5536,1.1104e+06,127.73,1,4.272,10,4.272,0
33.16,1.5237,1.1117e+06,129.29,1,4.288,10,4.288,0
32.552,1.4937,1.113e+06,130.84,1,4.304,10,4.304,0
31.896,1.4602,1.1137e+06,132.9,1,4.32,10,4.32,0
31.192,1.4212,1.1142e+06,135.72,1,4.336,10,4.336,0
30.478,1.3822,1.1149e+06,138.45,1,4.352,10,4.352,0
29.763,1.3432,1.1156e+06,141.18,1,4.368,10,4.368,0
29.049,1.3042,1.1163e+06,143.91,1,4.384,10,4.384,0
28.334,1.2652,1.117e+06,146.64,1,4.4,10,4.4,0
27.62,1.2261,1.1176e+06,149.38,1,4.416,10,4.416,0
26.905,1.1871,1.1183e+06,152.11,1,4.432,10,4.432,0
26.204,1.1481,1.1189e+06,154.95,1,4.448,10,4.448,0
25.612,1.109,1.1193e+06,158.7,1,4.464,10,4.464,0
25.021,1.0699,1.1196e+06,162.46,1,4.48,10,4.48,0
24.43,1.0309,1.1199e+06,166.22,1,4.496,10,4.496,0
23.838,0.9918,1.1203e+06,169.98,1,4.512,10,4.512,0
23.247,0.95273,1.1206e+06,173.73,1,4.528,10,4.528,0
22.656,0.91366,1.1209e+06,177.49,1,4.544,10,4.544,0
22.064,0.87459,1.1213e+06,181.25,1,4.56,10,4.56,0
21.473,0.83552,1.1216e+06,185.01,1,4.576,10,4.576,0
20.865,0.79601,1.1219e+06,188.74,1,4.592,10,4.592,0
20.341,0.75946,1.1222e+06,192.63,1,4.608,10,4.608,0
19.966,0.72942,1.1222e+06,196.56,1,4.624,10,4.624,0
19.592,0.69938,1.1222e+06,200.49,1,4.64,10,4.64,0
19.217,0.66931,1.1223e+06,204.39,1,4.656,10,4.656,0
18.842,0.63924,1.1224e+06,208.29,1,4.672,10,4.672,0
18.466,0.60916,1.1224e+06,212.18,1,4.688,10,4.688,0
18.091,0.57909,1.1225e+06,216.08,1,4.704,10,4.704,0
17.716,0.54901,1.1226e+06,219.98,1,4.72,10,4.72,0
17.341,0.51894,1.1227e+06,223.88,1,4.736,10,4.736,0
16.965,0.48886,1.1228e+06,227.77,1,4.752,10,4.752,0
16.625,0.461,1.1228e+06,231.5,1,4.768,10,4.768,0
16.414,0.44136,1.1227e+06,234.61,1,4.784,10,4.784,0
16.197,0.42108,1.1226e+06,237.78,1,4.8,10,4.8,0
15.976,0.40045,1.1225e+06,240.99,1,4.816,10,4.816,0
15.755,0.37981,1.1224e+06,244.19,1,4.832,10,4.832,0
15.534,0.35918,1.1223e+06,247.4,1,4.848,10,4.848,0
15.314,0.33854,1.1222e+06,250.6,1,4.864,10,4.864,0
15.093,0.31791,1.1221e+06,253.81,1,4.88,10,4.88,0
14.872,0.29727,1.122e+06,257.02,1,4.896,10,4.896,0
14.71,0.28105,1.1221e+06,259.59,1,4.912,10,4.912,0
14.6,0.26871,1.1224e+06,261.62,1,4.928,10,4.928,0
14.487,0.25603,1.1226e+06,263.65,1,4.944,10,4.944,0
14.375,0.24332,1.1229e+06,265.67,1,4.96,10,4.96,0
14.263,0.23062,1.1231e+06,267.7,1,4.976,10,4.976,0
14.151,0.21792,1.1234e+06,269.73,1,4.992,10,4.992,0
14.039,0.20522,1.1236e+06,271.76,1,5.008,10,5.008,0
13.96,0.19564,1.1239e+06,273.27,1,5.024,10,5.024,0
13.904,0.18832,1.1241e+06,274.4,1,5.04,10,5.04,0
13.848,0.181,1.1243e+06,275.54,1,5.056,10,5.056,0
13.792,0.17368,1.1245e+06,276.67,1,5.072,10,5.072,0
13.737,0.16636,1.1248e+06,277.81,1,5.088,10,5.088,0
13.681,0.15904,1.125e+06,278.94,1,5.104,10,5.104,0
13.625,0.15172,1.1252e+06,280.08,1,5.12,10,5.12,0
13.566,0.14389,1.1255e+06,281.28,1,5.136,10,5.136,0
13.517,0.13745,1.1257e+06,282.26,1,5.152,10,5.152,0
13.481,0.13255,1.1257e+06,283,1,5.168,10,5.168,0
13.448,0.12803,1.1256e+06,283.65,1,5.184,10,5.184,0
13.416,0.12357,1.1255e+06,284.3,1,5.2,10,5.2,0
13.384,0.1191,1.1255e+06,284.94,1,5.216,10,5.216,0
13.352,0.11464,1.1254e+06,285.58,1,5.232,10,5.232,0
13.319,0.11017,1.1253e+06,286.23,1,5.248,10,5.248,0
13.287,0.1057,1.1252e+06,286.87,1,5.264,10,5.264,0
13.255,0.10124,1.1252e+06,287.52,1,5.28,10,5.28,0
13.223,0.096773,1.1251e+06,288.16,1,5.296,10,5.296,0
13.199,0.093278,1.1251e+06,288.66,1,5.312,10,5.312,0
13.181,0.090499,1.1252e+06,289.07,1,5.328,10,5.328,0
13.163,0.087721,1.1253e+06,289.47,1,5.344,10,5.344,0
13.145,0.084942,1.1253e+06,289.87,1,5.36,10,5.36,0
13.127,0.082163,1.1254e+06,290.27,1,5.376,10,5.376,0
13.11,0.079709,1.1254e+06,290.64,1,5.392,10,5.392,0
13.092,0.077276,1.1253e+06,291,1,5.408,10,5.408,0
13.075,0.074843,1.1253e+06,291.37,1,5.424,10,5.424,0
13.057,0.07241,1.1253e+06,291.74,1,5.44,10,5.44,0
13.04,0.069977,1.1252e+06,292.1,1,5.456,10,5.456,0
13.022,0.067544,1.1252e+06,292.47,1,5.472,10,5.472,0
13.005,0.065111,1.1252e+06,292.84,1,5.488,10,5.488,0
12.988,0.062678,1.1251e+06,293.2,1,5.504,10,5.504,0
12.97,0.060244,1.1251e+06,293.57,1,5.52,10,5.52,0
12.957,0.058268,1.125e+06,293.85,1,5.536,10,5.536,0
12.947,0.056785,1.125e+06,294.06,1,5.552,10,5.552,0
12.938,0.055395,1.125e+06,294.26,1,5.568,10,5.568,0
12.929,0.054005,1.125e+06,294.46,1,5.584,10,5.584,0
12.919,0.052615,1.125e+06,294.65,1,5.6,10,5.6,0
12.91,0.051225,1.125e+06,294.85,1,5.616,10,5.616,0
12.901,0.049836,1.1249e+06,295.05,1,5.632,10,5.632,0
12.892,0.048446,1.1249e+06,295.25,1,5.648,10,5.648,0
12.883,0.047056,1.1249e+06,295.45,1,5.664,10,5.664,0
12.874,0.045666,1.1249e+06,295.64,1,5.68,10,5.68,0
12.865,0.044276,1.1249e+06,295.84,1,5.696,10,5.696,0
12.86,0.043589,1.1249e+06,295.94,1,5.712,10,5.712,0
12.856,0.042919,1.1249e+06,296.04,1,5.728,10,5.728,0
12.851,0.042249,1.1249e+06,296.13,1,5.744,10,5.744,0
12.847,0.041578,1.1249e+06,296.23,1,5.76,10,5.76,0
12.843,0.040908,1.1249e+06,296.32,1,5.776,10,5.776,0
12.839,0.040238,1.1249e+06,296.42,1,5.792,10,5.792,0
12.834,0.039568,1.1249e+06,296.51,1,5.808,10,5.808,0
12.83,0.038898,1.1249e+06,296.61,1,5.824,10,5.824,0
12.826,0.038227,1.1249e+06,296.71,1,5.84,10,5.84,0
12.821,0.037557,1.1249e+06,296.8,1,5.856,10,5.856,0
12.817,0.036887,1.1249e+06,296.9,1,5.872,10,5.872,0
12.813,0.036217,1.1248e+06,296.99,1,5.888,10,5.888,0
12.808,0.035547,1.1248e+06,297.09,1,5.904,10,5.904,0
12.804,0.034877,1.1248e+06,297.18,1,5.92,10,5.92,0
12.8,0.034206,1.1248e+06,297.28,1,5.936,10,5.936,0
12.795,0.033536,1.1248e+06,297.38,1,5.952,10,5.952,0
12.791,0.032866,1.1248e+06,297.47,1,5.968,10,5.968,0
12.787,0.032196,1.1248e+06,297.57,1,5.984,10,5.984,0
12.783,0.031505,1.1249e+06,297.66,1,6,10,6,0
12.779,0.030817,1.1249e+06,297.76,1,6.016,10,6.016,0
12.777,0.030548,1.1249e+06,297.8,1,6.032,10,6.032,0
12.775,0.030277,1.1249e+06,297.84,1,6.048,10,6.048,0
12.773,0.029998,1.1249e+06,297.88,1,6.064,10,6.064,0
12.771,0.02972,1.1249e+06,297.93,1,6.08,10,6.08,0
12.769,0.029441,1.1249e+06,297.97,1,6.096,10,6.096,0
12.767,0.029163,1.1249e+06,298.01,1,6.112,10,6.112,0
12.765,0.028884,1.1249e+06,298.06,1,6.128,10,6.128,0
12.764,0.028606,1.1249e+06,298.1,1,6.144,10,6.144,0
12.762,0.028327,1.1249e+06,298.14,1,6.16,10,6.16,0
12.76,0.028049,1.1249e+06,298.19,1,6.176,10,6.176,0
12.758,0.02777,1.1249e+06,298.23,1,6.192,10,6.192,0
12.756,0.027492,1.1248e+06,298.28,1,6.208,10,6.208,0
12.754,0.027213,1.1248e+06,298.32,1,6.224,10,6.224,0
12.752,0.026935,1.1248e+06,298.36,1,6.24,10,6.24,0
12.75,0.026656,1.1248e+06,298.41,1,6.256,10,6.256,0
12.748,0.026378,1.1248e+06,298.45,1,6.272,10,6.272,0
12.746,0.026099,1.1248e+06,298.49,1,6.288,10,6.288,0
