"Density","Mach","Pressure","Temperature","vtkValidPointMask","arc_length","Points:0","Points:1","Points:2"
13.121,3.1833,2.0014e+05,61.091,1,0,10,0,0
13.093,3.1853,1.9952e+05,61.023,1,0.016,10,0.016,0
13.065,3.1872,1.989e+05,60.956,1,0.032,10,0.032,0
13.038,3.1892,1.9828e+05,60.889,1,0.048,10,0.048,0
13.01,3.1912,1.9767e+05,60.821,1,0.064,10,0.064,0
12.982,3.1931,1.9705e+05,60.754,1,0.08,10,0.08,0
12.955,3.1951,1.9643e+05,60.687,1,0.096,10,0.096,0
12.927,3.197,1.9581e+05,60.619,1,0.112,10,0.112,0
12.899,3.199,1.952e+05,60.552,1,0.128,10,0.128,0
12.872,3.2009,1.9458e+05,60.485,1,0.144,10,0.144,0
12.844,3.2029,1.9396e+05,60.417,1,0.16,10,0.16,0
12.816,3.2049,1.9334e+05,60.35,1,0.176,10,0.176,0
12.789,3.2068,1.9272e+05,60.283,1,0.192,10,0.192,0
12.761,3.2088,1.9211e+05,60.215,1,0.208,10,0.208,0
12.733,3.2107,1.9149e+05,60.148,1,0.224,10,0.224,0
12.706,3.2127,1.9087e+05,60.081,1,0.24,10,0.24,0
12.678,3.2146,1.9025e+05,60.013,1,0.256,10,0.256,0
12.65,3.2166,1.8963e+05,59.946,1,0.272,10,0.272,0
12.623,3.2186,1.8902e+05,59.879,1,0.288,10,0.288,0
12.595,3.2205,1.884e+05,59.811,1,0.304,10,0.304,0
12.566,3.2224,1.8775e+05,59.743,1,0.32,10,0.32,0
12.538,3.2243,1.871e+05,59.675,1,0.336,10,0.336,0
12.509,3.2262,1.8645e+05,59.607,1,0.352,10,0.352,0
12.491,3.2277,1.8604e+05,59.561,1,0.368,10,0.368,0
12.484,3.2286,1.8586e+05,59.539,1,0.384,10,0.384,0
12.476,3.2295,1.8567e+05,59.516,1,0.4,10,0.4,0
12.469,3.2305,1.8549e+05,59.493,1,0.416,10,0.416,0
12.461,3.2314,1.8531e+05,59.471,1,0.432,10,0.432,0
12.454,3.2324,1.8513e+05,59.448,1,0.448,10,0.448,0
12.446,3.2333,1.8495e+05,59.425,1,0.464,10,0.464,0
12.439,3.2342,1.8476e+05,59.403,1,0.48,10,0.48,0
12.431,3.2352,1.8458e+05,59.38,1,0.496,10,0.496,0
12.424,3.2361,1.844e+05,59.358,1,0.512,10,0.512,0
12.416,3.2371,1.8421e+05,59.332,1,0.528,10,0.528,0
12.408,3.2382,1.8401e+05,59.306,1,0.544,10,0.544,0
12.4,3.2392,1.8382e+05,59.28,1,0.56,10,0.56,0
12.391,3.2402,1.8362e+05,59.255,1,0.576,10,0.576,0
12.383,3.2412,1.8343e+05,59.229,1,0.592,10,0.592,0
12.375,3.2423,1.8323e+05,59.203,1,0.608,10,0.608,0
12.367,3.2433,1.8304e+05,59.177,1,0.624,10,0.624,0
12.359,3.2443,1.8284e+05,59.152,1,0.64,10,0.64,0
12.351,3.2453,1.8265e+05,59.126,1,0.656,10,0.656,0
12.343,3.2464,1.8245e+05,59.1,1,0.672,10,0.672,0
12.335,3.2474,1.8226e+05,59.074,1,0.688,10,0.688,0
12.326,3.2484,1.8207e+05,59.048,1,0.704,10,0.704,0
12.318,3.2494,1.8187e+05,59.023,1,0.72,10,0.72,0
12.312,3.2503,1.8173e+05,59.003,1,0.736,10,0.736,0
12.311,3.2508,1.8168e+05,58.994,1,0.752,10,0.752,0
12.309,3.2513,1.8163e+05,58.986,1,0.768,10,0.768,0
12.307,3.2517,1.8159e+05,58.977,1,0.784,10,0.784,0
12.306,3.2522,1.8154e+05,58.968,1,0.8,10,0.8,0
12.304,3.2527,1.815e+05,58.961,1,0.816,10,0.816,0
12.302,3.2531,1.8145e+05,58.955,1,0.832,10,0.832,0
12.3,3.2535,1.8141e+05,58.949,1,0.848,10,0.848,0
12.298,3.2538,1.8137e+05,58.944,1,0.864,10,0.864,0
12.296,3.2542,1.8132e+05,58.938,1,0.88,10,0.88,0
12.295,3.2546,1.8128e+05,58.932,1,0.896,10,0.896,0
12.293,3.255,1.8124e+05,58.926,1,0.912,10,0.912,0
12.291,3.2554,1.812e+05,58.921,1,0.928,10,0.928,0
12.289,3.2558,1.8115e+05,58.915,1,0.944,10,0.944,0
12.287,3.2561,1.8111e+05,58.909,1,0.96,10,0.96,0
12.285,3.2565,1.8107e+05,58.903,1,0.976,10,0.976,0
12.283,3.2569,1.8102e+05,58.898,1,0.992,10,0.992,0
12.281,3.2573,1.8098e+05,58.892,1,1.008,10,1.008,0
12.28,3.2577,1.8094e+05,58.886,1,1.024,10,1.024,0
12.278,3.2581,1.8089e+05,58.88,1,1.04,10,1.04,0
12.276,3.2584,1.8085e+05,58.875,1,1.056,10,1.056,0
12.274,3.2588,1.8081e+05,58.869,1,1.072,10,1.072,0
12.272,3.2592,1.8077e+05,58.863,1,1.088,10,1.088,0
12.27,3.2596,1.8072e+05,58.857,1,1.104,10,1.104,0
12.268,3.26,1.8068e+05,58.852,1,1.12,10,1.12,0
12.267,3.2604,1.8064e+05,58.846,1,1.136,10,1.136,0
12.265,3.2607,1.8059e+05,58.84,1,1.152,10,1.152,0
12.263,3.2611,1.8055e+05,58.834,1,1.168,10,1.168,0
12.261,3.2615,1.8051e+05,58.829,1,1.184,10,1.184,0
12.259,3.2619,1.8047e+05,58.823,1,1.2,10,1.2,0
12.257,3.2623,1.8042e+05,58.817,1,1.216,10,1.216,0
12.255,3.2627,1.8038e+05,58.811,1,1.232,10,1.232,0
12.253,3.263,1.8032e+05,58.805,1,1.248,10,1.248,0
12.249,3.2634,1.8024e+05,58.799,1,1.264,10,1.264,0
12.245,3.2637,1.8016e+05,58.792,1,1.28,10,1.28,0
12.242,3.264,1.8008e+05,58.786,1,1.296,10,1.296,0
12.238,3.2643,1.8e+05,58.779,1,1.312,10,1.312,0
12.235,3.2647,1.7993e+05,58.773,1,1.328,10,1.328,0
12.235,3.2647,1.7992e+05,58.773,1,1.344,10,1.344,0
12.235,3.2648,1.7992e+05,58.773,1,1.36,10,1.36,0
12.235,3.2649,1.7991e+05,58.773,1,1.376,10,1.376,0
12.235,3.265,1.799e+05,58.773,1,1.392,10,1.392,0
12.235,3.2651,1.799e+05,58.773,1,1.408,10,1.408,0
12.235,3.2652,1.7989e+05,58.773,1,1.424,10,1.424,0
12.235,3.2653,1.7989e+05,58.773,1,1.44,10,1.44,0
12.235,3.2654,1.7988e+05,58.774,1,1.456,10,1.456,0
12.236,3.2654,1.799e+05,58.776,1,1.472,10,1.472,0
12.237,3.2654,1.7992e+05,58.778,1,1.488,10,1.488,0
12.237,3.2654,1.7993e+05,58.781,1,1.504,10,1.504,0
12.245,3.2649,1.8009e+05,58.797,1,1.52,10,1.52,0
12.254,3.2643,1.8026e+05,58.815,1,1.536,10,1.536,0
12.262,3.2638,1.8042e+05,58.832,1,1.552,10,1.552,0
12.271,3.2632,1.806e+05,58.851,1,1.568,10,1.568,0
12.28,3.2626,1.8079e+05,58.871,1,1.584,10,1.584,0
12.298,3.2615,1.8114e+05,58.907,1,1.6,10,1.6,0
12.32,3.26,1.8158e+05,58.952,1,1.616,10,1.616,0
12.358,3.2574,1.8232e+05,59.028,1,1.632,10,1.632,0
12.41,3.2538,1.8336e+05,59.133,1,1.648,10,1.648,0
12.528,3.2454,1.857e+05,59.366,1,1.664,10,1.664,0
12.835,3.2241,1.9181e+05,59.969,1,1.68,10,1.68,0
13.913,3.1497,2.14e+05,62.089,1,1.696,10,1.696,0
16.729,2.9767,2.7634e+05,67.414,1,1.712,10,1.712,0
19.998,2.8139,3.5218e+05,72.974,1,1.728,10,1.728,0
22.868,2.6976,4.2176e+05,77.344,1,1.744,10,1.744,0
24.629,2.6341,4.6611e+05,79.863,1,1.76,10,1.76,0
25.599,2.6042,4.9048e+05,81.139,1,1.776,10,1.776,0
26.19,2.5866,5.053e+05,81.878,1,1.792,10,1.792,0
26.647,2.5724,5.1692e+05,82.458,1,1.808,10,1.808,0
27.024,2.5609,5.2664e+05,82.938,1,1.824,10,1.824,0
27.393,2.5496,5.3621e+05,83.411,1,1.84,10,1.84,0
27.703,2.5398,5.4433e+05,83.804,1,1.856,10,1.856,0
28.012,2.5301,5.5244e+05,84.197,1,1.872,10,1.872,0
28.301,2.5214,5.6004e+05,84.555,1,1.888,10,1.888,0
28.579,2.5131,5.6738e+05,84.897,1,1.904,10,1.904,0
28.858,2.5048,5.7473e+05,85.238,1,1.92,10,1.92,0
29.136,2.4965,5.8207e+05,85.58,1,1.936,10,1.936,0
29.425,2.488,5.8968e+05,85.933,1,1.952,10,1.952,0
29.684,2.4805,5.9669e+05,86.25,1,1.968,10,1.968,0
29.942,2.4731,6.0366e+05,86.565,1,1.984,10,1.984,0
30.194,2.4658,6.1052e+05,86.875,1,2,10,2,0
30.446,2.4585,6.1739e+05,87.185,1,2.016,10,2.016,0
30.699,2.4512,6.2425e+05,87.495,1,2.032,10,2.032,0
30.951,2.4439,6.3111e+05,87.805,1,2.048,10,2.048,0
31.183,2.4373,6.3764e+05,88.093,1,2.064,10,2.064,0
31.415,2.4307,6.4414e+05,88.379,1,2.08,10,2.08,0
31.646,2.4242,6.5065e+05,88.666,1,2.096,10,2.096,0
31.88,2.4176,6.5721e+05,88.955,1,2.112,10,2.112,0
32.116,2.4108,6.6383e+05,89.247,1,2.128,10,2.128,0
32.352,2.4041,6.7044e+05,89.539,1,2.144,10,2.144,0
32.574,2.3981,6.7677e+05,89.809,1,2.16,10,2.16,0
32.793,2.3921,6.8304e+05,90.075,1,2.176,10,2.176,0
33.012,2.3861,6.8932e+05,90.341,1,2.192,10,2.192,0
33.231,2.3802,6.9559e+05,90.607,1,2.208,10,2.208,0
33.45,2.3742,7.0187e+05,90.873,1,2.224,10,2.224,0
33.669,2.3682,7.0814e+05,91.139,1,2.24,10,2.24,0
33.89,2.3623,7.1442e+05,91.402,1,2.256,10,2.256,0
34.106,2.3574,7.2042e+05,91.63,1,2.272,10,2.272,0
34.322,2.3524,7.2641e+05,91.859,1,2.288,10,2.288,0
34.539,2.3474,7.3241e+05,92.087,1,2.304,10,2.304,0
34.755,2.3424,7.384e+05,92.315,1,2.32,10,2.32,0
34.972,2.3375,7.444e+05,92.544,1,2.336,10,2.336,0
35.188,2.3325,7.504e+05,92.772,1,2.352,10,2.352,0
35.405,2.3275,7.5639e+05,93,1,2.368,10,2.368,0
35.622,2.3227,7.6235e+05,93.223,1,2.384,10,2.384,0
35.844,2.3188,7.6807e+05,93.41,1,2.4,10,2.4,0
36.065,2.3149,7.7379e+05,93.596,1,2.416,10,2.416,0
36.287,2.311,7.7951e+05,93.783,1,2.432,10,2.432,0
36.508,2.3071,7.8523e+05,93.97,1,2.448,10,2.448,0
36.73,2.3032,7.9095e+05,94.157,1,2.464,10,2.464,0
36.952,2.2993,7.9667e+05,94.343,1,2.48,10,2.48,0
37.173,2.2954,8.0239e+05,94.53,1,2.496,10,2.496,0
37.394,2.2916,8.0807e+05,94.713,1,2.512,10,2.512,0
37.614,2.288,8.1364e+05,94.888,1,2.528,10,2.528,0
37.838,2.2852,8.1899e+05,95.035,1,2.544,10,2.544,0
38.064,2.2827,8.2429e+05,95.172,1,2.56,10,2.56,0
38.292,2.2802,8.2966e+05,95.313,1,2.576,10,2.576,0
38.52,2.2776,8.3503e+05,95.454,1,2.592,10,2.592,0
38.749,2.275,8.4039e+05,95.595,1,2.608,10,2.608,0
38.977,2.2724,8.4576e+05,95.736,1,2.624,10,2.624,0
39.205,2.2698,8.5113e+05,95.877,1,2.64,10,2.64,0
39.433,2.2672,8.565e+05,96.017,1,2.656,10,2.656,0
39.662,2.2646,8.6187e+05,96.158,1,2.672,10,2.672,0
39.887,2.2621,8.672e+05,96.299,1,2.688,10,2.688,0
40.08,2.2597,8.7206e+05,96.435,1,2.704,10,2.704,0
40.273,2.2573,8.7692e+05,96.572,1,2.72,10,2.72,0
40.466,2.2549,8.8178e+05,96.708,1,2.736,10,2.736,0
40.659,2.2525,8.8664e+05,96.844,1,2.752,10,2.752,0
40.852,2.2501,8.915e+05,96.98,1,2.768,10,2.768,0
41.044,2.2477,8.9637e+05,97.117,1,2.784,10,2.784,0
41.237,2.2453,9.0123e+05,97.253,1,2.8,10,2.8,0
41.43,2.2429,9.0609e+05,97.389,1,2.816,10,2.816,0
41.623,2.2405,9.1095e+05,97.526,1,2.832,10,2.832,0
41.816,2.2381,9.1581e+05,97.662,1,2.848,10,2.848,0
42.009,2.2358,9.2067e+05,97.798,1,2.864,10,2.864,0
42.202,2.2334,9.2553e+05,97.935,1,2.88,10,2.88,0
42.393,2.231,9.3038e+05,98.072,1,2.896,10,2.896,0
42.516,2.2279,9.3451e+05,98.223,1,2.912,10,2.912,0
42.635,2.2249,9.3858e+05,98.375,1,2.928,10,2.928,0
42.754,2.2219,9.4264e+05,98.526,1,2.944,10,2.944,0
42.873,2.2189,9.4671e+05,98.677,1,2.96,10,2.96,0
42.992,2.2159,9.5078e+05,98.829,1,2.976,10,2.976,0
43.111,2.2129,9.5485e+05,98.98,1,2.992,10,2.992,0
43.23,2.2098,9.5892e+05,99.131,1,3.008,10,3.008,0
43.349,2.2068,9.6299e+05,99.282,1,3.024,10,3.024,0
43.468,2.2038,9.6705e+05,99.434,1,3.04,10,3.04,0
43.587,2.2008,9.7112e+05,99.585,1,3.056,10,3.056,0
43.706,2.1978,9.7519e+05,99.736,1,3.072,10,3.072,0
43.825,2.1948,9.7926e+05,99.888,1,3.088,10,3.088,0
43.944,2.1918,9.8333e+05,100.04,1,3.104,10,3.104,0
44.031,2.1884,9.8705e+05,100.2,1,3.12,10,3.12,0
44.07,2.1846,9.9021e+05,100.37,1,3.136,10,3.136,0
44.109,2.1808,9.9338e+05,100.54,1,3.152,10,3.152,0
44.147,2.177,9.9655e+05,100.7,1,3.168,10,3.168,0
44.186,2.1732,9.9972e+05,100.87,1,3.184,10,3.184,0
44.225,2.1694,1.0029e+06,101.04,1,3.2,10,3.2,0
44.264,2.1656,1.006e+06,101.21,1,3.216,10,3.216,0
44.302,2.1618,1.0092e+06,101.38,1,3.232,10,3.232,0
44.341,2.158,1.0124e+06,101.55,1,3.248,10,3.248,0
44.38,2.1542,1.0156e+06,101.72,1,3.264,10,3.264,0
44.418,2.1504,1.0187e+06,101.89,1,3.28,10,3.28,0
44.457,2.1466,1.0219e+06,102.06,1,3.296,10,3.296,0
44.496,2.1428,1.0251e+06,102.23,1,3.312,10,3.312,0
44.535,2.1389,1.0282e+06,102.4,1,3.328,10,3.328,0
44.536,2.1346,1.031e+06,102.58,1,3.344,10,3.344,0
44.491,2.1295,1.0333e+06,102.78,1,3.36,10,3.36,0
44.447,2.1244,1.0356e+06,102.99,1,3.376,10,3.376,0
44.402,2.1193,1.0379e+06,103.19,1,3.392,10,3.392,0
44.358,2.1142,1.0402e+06,103.4,1,3.408,10,3.408,0
44.313,2.1091,1.0426e+06,103.6,1,3.424,10,3.424,0
44.269,2.104,1.0449e+06,103.81,1,3.44,10,3.44,0
44.224,2.0989,1.0472e+06,104.01,1,3.456,10,3.456,0
44.18,2.0938,1.0495e+06,104.22,1,3.472,10,3.472,0
44.136,2.0887,1.0519e+06,104.43,1,3.488,10,3.488,0
44.091,2.0836,1.0542e+06,104.63,1,3.504,10,3.504,0
44.047,2.0785,1.0565e+06,104.84,1,3.52,10,3.52,0
44.002,2.0734,1.0588e+06,105.04,1,3.536,10,3.536,0
43.958,2.0683,1.0611e+06,105.25,1,3.552,10,3.552,0
43.913,2.0632,1.0635e+06,105.45,1,3.568,10,3.568,0
43.784,2.0558,1.0654e+06,105.75,1,3.584,10,3.584,0
43.646,2.0481,1.0674e+06,106.05,1,3.6,10,3.6,0
43.508,2.0404,1.0693e+06,106.36,1,3.616,10,3.616,0
43.37,2.0327,1.0713e+06,106.67,1,3.632,10,3.632,0
43.232,2.025,1.0732e+06,106.97,1,3.648,10,3.648,0
43.052,2.0156,1.0752e+06,107.35,1,3.664,10,3.664,0
42.851,2.0054,1.0771e+06,107.77,1,3.68,10,3.68,0
42.651,1.9952,1.0789e+06,108.19,1,3.696,10,3.696,0
42.45,1.985,1.0808e+06,108.61,1,3.712,10,3.712,0
42.25,1.9748,1.0827e+06,109.03,1,3.728,10,3.728,0
42.049,1.9646,1.0846e+06,109.45,1,3.744,10,3.744,0
41.849,1.9544,1.0865e+06,109.86,1,3.76,10,3.76,0
41.648,1.9442,1.0884e+06,110.28,1,3.776,10,3.776,0
41.448,1.934,1.0903e+06,110.7,1,3.792,10,3.792,0
41.247,1.9238,1.0922e+06,111.12,1,3.808,10,3.808,0
41.046,1.9136,1.0941e+06,111.54,1,3.824,10,3.824,0
40.846,1.9034,1.096e+06,111.96,1,3.84,10,3.84,0
40.645,1.8932,1.0979e+06,112.38,1,3.856,10,3.856,0
40.424,1.8824,1.0996e+06,112.82,1,3.872,10,3.872,0
40.091,1.8666,1.1006e+06,113.57,1,3.888,10,3.888,0
39.71,1.8483,1.1015e+06,114.48,1,3.904,10,3.904,0
39.339,1.8307,1.1024e+06,115.34,1,3.92,10,3.92,0
38.968,1.8131,1.1033e+06,116.2,1,3.936,10,3.936,0
38.597,1.7954,1.1042e+06,117.06,1,3.952,10,3.952,0
38.226,1.7778,1.1052e+06,117.92,1,3.968,10,3.968,0
37.855,1.7602,1.1061e+06,118.78,1,3.984,10,3.984,0
37.484,1.7425,1.107e+06,119.64,1,4,10,4,0
37.112,1.7249,1.1079e+06,120.5,1,4.016,10,4.016,0
36.741,1.7073,1.1089e+06,121.36,1,4.032,10,4.032,0
36.37,1.6897,1.1098e+06,122.22,1,4.048,10,4.048,0
35.999,1.672,1.1107e+06,123.09,1,4.064,10,4.064,0
35.628,1.6544,1.1116e+06,123.95,1,4.08,10,4.08,0
35.257,1.6368,1.1125e+06,124.81,1,4.096,10,4.096,0
34.886,1.6192,1.1135e+06,125.67,1,4.112,10,4.112,0
34.515,1.6015,1.1144e+06,126.53,1,4.128,10,4.128,0
34.111,1.5818,1.1153e+06,127.54,1,4.144,10,4.144,0
33.665,1.5595,1.1163e+06,128.75,1,4.16,10,4.16,0
33.219,1.5371,1.1172e+06,129.96,1,4.176,10,4.176,0
32.773,1.5148,1.1182e+06,131.16,1,4.192,10,4.192,0
32.328,1.4924,1.1191e+06,132.37,1,4.208,10,4.208,0
31.882,1.4701,1.1201e+06,133.58,1,4.224,10,4.224,0
31.438,1.4477,1.121e+06,134.81,1,4.24,10,4.24,0
31.048,1.4242,1.121e+06,136.63,1,4.256,10,4.256,0
30.658,1.4008,1.121e+06,138.45,1,4.272,10,4.272,0
30.268,1.3773,1.1211e+06,140.26,1,4.288,10,4.288,0
29.878,1.3538,1.1211e+06,142.08,1,4.304,10,4.304,0
29.488,1.3303,1.1211e+06,143.9,1,4.32,10,4.32,0
29.098,1.3068,1.1211e+06,145.72,1,4.336,10,4.336,0
28.708,1.2833,1.1212e+06,147.54,1,4.352,10,4.352,0
28.318,1.2599,1.1212e+06,149.36,1,4.368,10,4.368,0
27.928,1.2364,1.1212e+06,151.17,1,4.384,10,4.384,0
27.539,1.213,1.1212e+06,152.99,1,4.4,10,4.4,0
27.201,1.1923,1.1213e+06,154.64,1,4.416,10,4.416,0
26.864,1.1717,1.1215e+06,156.28,1,4.432,10,4.432,0
26.526,1.151,1.1216e+06,157.93,1,4.448,10,4.448,0
26.188,1.1304,1.1217e+06,159.58,1,4.464,10,4.464,0
25.851,1.1097,1.1218e+06,161.23,1,4.48,10,4.48,0
25.513,1.0891,1.1219e+06,162.87,1,4.496,10,4.496,0
25.175,1.0684,1.122e+06,164.52,1,4.512,10,4.512,0
24.838,1.0478,1.1221e+06,166.17,1,4.528,10,4.528,0
24.5,1.0271,1.1222e+06,167.82,1,4.544,10,4.544,0
24.163,1.0065,1.1223e+06,169.46,1,4.56,10,4.56,0
23.825,0.98585,1.1224e+06,171.11,1,4.576,10,4.576,0
23.487,0.9652,1.1226e+06,172.76,1,4.592,10,4.592,0
23.15,0.94455,1.1227e+06,174.4,1,4.608,10,4.608,0
22.812,0.92391,1.1228e+06,176.05,1,4.624,10,4.624,0
22.474,0.90326,1.1229e+06,177.7,1,4.64,10,4.64,0
22.137,0.88262,1.123e+06,179.35,1,4.656,10,4.656,0
21.869,0.86485,1.1231e+06,181.02,1,4.672,10,4.672,0
21.693,0.85078,1.123e+06,182.72,1,4.688,10,4.688,0
21.516,0.8367,1.123e+06,184.41,1,4.704,10,4.704,0
21.339,0.82263,1.123e+06,186.11,1,4.72,10,4.72,0
21.163,0.80856,1.123e+06,187.81,1,4.736,10,4.736,0
20.986,0.79449,1.123e+06,189.51,1,4.752,10,4.752,0
20.809,0.78042,1.123e+06,191.21,1,4.768,10,4.768,0
20.632,0.76635,1.123e+06,192.91,1,4.784,10,4.784,0
20.456,0.75228,1.123e+06,194.6,1,4.8,10,4.8,0
20.279,0.73821,1.123e+06,196.3,1,4.816,10,4.816,0
20.102,0.72414,1.123e+06,198,1,4.832,10,4.832,0
19.926,0.71007,1.1229e+06,199.7,1,4.848,10,4.848,0
19.749,0.69599,1.1229e+06,201.4,1,4.864,10,4.864,0
19.572,0.68192,1.1229e+06,203.1,1,4.88,10,4.88,0
19.396,0.66785,1.1229e+06,204.8,1,4.896,10,4.896,0
19.219,0.65378,1.1229e+06,206.49,1,4.912,10,4.912,0
19.042,0.63971,1.1229e+06,208.19,1,4.928,10,4.928,0
18.865,0.62564,1.1229e+06,209.89,1,4.944,10,4.944,0
18.689,0.61157,1.1229e+06,211.59,1,4.96,10,4.96,0
18.512,0.5975,1.1229e+06,213.29,1,4.976,10,4.976,0
18.335,0.58343,1.1229e+06,214.99,1,4.992,10,4.992,0
18.159,0.56936,1.1228e+06,216.68,1,5.008,10,5.008,0
17.982,0.55528,1.1228e+06,218.38,1,5.024,10,5.024,0
17.805,0.54121,1.1228e+06,220.08,1,5.04,10,5.04,0
17.628,0.52714,1.1228e+06,221.78,1,5.056,10,5.056,0
17.452,0.51307,1.1228e+06,223.48,1,5.072,10,5.072,0
17.275,0.499,1.1228e+06,225.18,1,5.088,10,5.088,0
17.098,0.48493,1.1228e+06,226.88,1,5.104,10,5.104,0
16.922,0.47086,1.1228e+06,228.57,1,5.12,10,5.12,0
16.761,0.45801,1.1227e+06,230.21,1,5.136,10,5.136,0
16.602,0.44527,1.1227e+06,231.85,1,5.152,10,5.152,0
16.498,0.43615,1.1226e+06,233.17,1,5.168,10,5.168,0
16.426,0.42912,1.1226e+06,234.3,1,5.184,10,5.184,0
16.354,0.42209,1.1226e+06,235.43,1,5.2,10,5.2,0
16.282,0.41505,1.1226e+06,236.57,1,5.216,10,5.216,0
16.209,0.40794,1.1226e+06,237.71,1,5.232,10,5.232,0
16.133,0.40056,1.1226e+06,238.89,1,5.248,10,5.248,0
16.057,0.39317,1.1226e+06,240.07,1,5.264,10,5.264,0
15.981,0.38579,1.1227e+06,241.26,1,5.28,10,5.28,0
15.905,0.3784,1.1227e+06,242.44,1,5.296,10,5.296,0
15.829,0.37102,1.1227e+06,243.62,1,5.312,10,5.312,0
15.754,0.36363,1.1227e+06,244.8,1,5.328,10,5.328,0
15.678,0.35625,1.1228e+06,245.99,1,5.344,10,5.344,0
15.602,0.34886,1.1228e+06,247.17,1,5.36,10,5.36,0
15.526,0.34147,1.1228e+06,248.35,1,5.376,10,5.376,0
15.45,0.33409,1.1229e+06,249.53,1,5.392,10,5.392,0
15.374,0.3267,1.1229e+06,250.72,1,5.408,10,5.408,0
15.298,0.31932,1.1229e+06,251.9,1,5.424,10,5.424,0
15.222,0.31193,1.1229e+06,253.08,1,5.44,10,5.44,0
15.147,0.30455,1.123e+06,254.26,1,5.456,10,5.456,0
15.071,0.29716,1.123e+06,255.45,1,5.472,10,5.472,0
14.995,0.28978,1.123e+06,256.63,1,5.488,10,5.488,0
14.919,0.28239,1.1231e+06,257.81,1,5.504,10,5.504,0
14.843,0.27501,1.1231e+06,258.99,1,5.52,10,5.52,0
14.767,0.26762,1.1231e+06,260.18,1,5.536,10,5.536,0
14.691,0.26024,1.1231e+06,261.36,1,5.552,10,5.552,0
14.615,0.25285,1.1232e+06,262.54,1,5.568,10,5.568,0
14.54,0.24547,1.1232e+06,263.72,1,5.584,10,5.584,0
14.464,0.23808,1.1232e+06,264.91,1,5.6,10,5.6,0
14.388,0.2307,1.1233e+06,266.09,1,5.616,10,5.616,0
14.312,0.22331,1.1233e+06,267.27,1,5.632,10,5.632,0
14.236,0.21593,1.1233e+06,268.45,1,5.648,10,5.648,0
14.16,0.20854,1.1234e+06,269.64,1,5.664,10,5.664,0
14.086,0.20128,1.1234e+06,270.8,1,5.68,10,5.68,0
14.055,0.1977,1.1234e+06,271.4,1,5.696,10,5.696,0
14.025,0.19412,1.1234e+06,272,1,5.712,10,5.712,0
13.994,0.19053,1.1234e+06,272.6,1,5.728,10,5.728,0
13.964,0.18695,1.1234e+06,273.2,1,5.744,10,5.744,0
13.933,0.18337,1.1234e+06,273.8,1,5.76,10,5.76,0
13.903,0.17978,1.1234e+06,274.4,1,5.776,10,5.776,0
13.872,0.1762,1.1234e+06,275,1,5.792,10,5.792,0
13.842,0.17261,1.1234e+06,275.6,1,5.808,10,5.808,0
13.811,0.16903,1.1234e+06,276.21,1,5.824,10,5.824,0
13.781,0.16545,1.1234e+06,276.81,1,5.84,10,5.84,0
13.75,0.16186,1.1234e+06,277.41,1,5.856,10,5.856,0
13.72,0.15828,1.1234e+06,278.01,1,5.872,10,5.872,0
13.689,0.1547,1.1235e+06,278.61,1,5.888,10,5.888,0
13.659,0.15111,1.1235e+06,279.21,1,5.904,10,5.904,0
13.628,0.14753,1.1235e+06,279.81,1,5.92,10,5.92,0
13.598,0.14396,1.1235e+06,280.41,1,5.936,10,5.936,0
13.571,0.14072,1.1235e+06,280.95,1,5.952,10,5.952,0
13.543,0.13748,1.1235e+06,281.49,1,5.968,10,5.968,0
13.516,0.13424,1.1235e+06,282.03,1,5.984,10,5.984,0
13.489,0.131,1.1235e+06,282.58,1,6,10,6,0
13.462,0.12776,1.1235e+06,283.12,1,6.016,10,6.016,0
13.435,0.12452,1.1235e+06,283.66,1,6.032,10,6.032,0
13.408,0.12128,1.1235e+06,284.2,1,6.048,10,6.048,0
13.38,0.11804,1.1235e+06,284.75,1,6.064,10,6.064,0
13.353,0.1148,1.1235e+06,285.29,1,6.08,10,6.08,0
13.326,0.11156,1.1235e+06,285.83,1,6.096,10,6.096,0
13.299,0.10832,1.1235e+06,286.37,1,6.112,10,6.112,0
13.272,0.10508,1.1235e+06,286.92,1,6.128,10,6.128,0
13.245,0.10184,1.1235e+06,287.46,1,6.144,10,6.144,0
13.217,0.098604,1.1235e+06,288,1,6.16,10,6.16,0
13.19,0.095364,1.1235e+06,288.54,1,6.176,10,6.176,0
13.163,0.092124,1.1235e+06,289.09,1,6.192,10,6.192,0
13.136,0.088885,1.1235e+06,289.63,1,6.208,10,6.208,0
13.112,0.086041,1.1235e+06,290.11,1,6.224,10,6.224,0
13.103,0.084884,1.1235e+06,290.31,1,6.24,10,6.24,0
13.094,0.083728,1.1235e+06,290.51,1,6.256,10,6.256,0
13.085,0.082571,1.1236e+06,290.72,1,6.272,10,6.272,0
13.075,0.081414,1.1236e+06,290.92,1,6.288,10,6.288,0
13.066,0.080258,1.1236e+06,291.12,1,6.304,10,6.304,0
