"Density","Mach","Pressure","Temperature","vtkValidPointMask","arc_length","Points:0","Points:1","Points:2"
37.716,0.26242,7.7747e+05,499.45,1,0,-8.1,0,0
37.707,0.26311,7.7731e+05,499.44,1,0.0731,-8.0269,0,0
37.698,0.2638,7.7716e+05,499.44,1,0.1462,-7.9538,0,0
37.689,0.2645,7.77e+05,499.44,1,0.2193,-7.8807,0,0
37.68,0.26519,7.7685e+05,499.43,1,0.2924,-7.8076,0,0
37.671,0.26588,7.7669e+05,499.43,1,0.3655,-7.7345,0,0
37.662,0.26657,7.7654e+05,499.42,1,0.4386,-7.6614,0,0
37.651,0.26736,7.7635e+05,499.42,1,0.5117,-7.5883,0,0
37.633,0.26867,7.7604e+05,499.41,1,0.5848,-7.5152,0,0
37.615,0.26999,7.7573e+05,499.4,1,0.6579,-7.4421,0,0
37.597,0.2713,7.7542e+05,499.4,1,0.731,-7.369,0,0
37.574,0.27332,7.7503e+05,499.39,1,0.8041,-7.2959,0,0
37.55,0.27559,7.7461e+05,499.38,1,0.8772,-7.2228,0,0
37.525,0.27786,7.7419e+05,499.37,1,0.9503,-7.1497,0,0
37.497,0.28036,7.7371e+05,499.35,1,1.0234,-7.0766,0,0
37.46,0.28337,7.7307e+05,499.34,1,1.0965,-7.0035,0,0
37.423,0.28639,7.7243e+05,499.32,1,1.1696,-6.9304,0,0
37.385,0.2894,7.7178e+05,499.31,1,1.2427,-6.8573,0,0
37.343,0.2929,7.7105e+05,499.29,1,1.3158,-6.7842,0,0
37.3,0.29649,7.7031e+05,499.27,1,1.3889,-6.7111,0,0
37.257,0.30008,7.6957e+05,499.25,1,1.462,-6.638,0,0
37.21,0.30392,7.6876e+05,499.23,1,1.5351,-6.5649,0,0
37.157,0.30814,7.6786e+05,499.21,1,1.6082,-6.4918,0,0
37.105,0.31236,7.6695e+05,499.19,1,1.6813,-6.4187,0,0
37.053,0.31658,7.6605e+05,499.17,1,1.7544,-6.3456,0,0
36.991,0.32139,7.6498e+05,499.14,1,1.8275,-6.2725,0,0
36.928,0.32626,7.6389e+05,499.11,1,1.9006,-6.1994,0,0
36.865,0.33112,7.628e+05,499.08,1,1.9737,-6.1263,0,0
36.797,0.33626,7.6163e+05,499.06,1,2.0468,-6.0532,0,0
36.724,0.34175,7.6037e+05,499.02,1,2.1199,-5.9801,0,0
36.651,0.34724,7.591e+05,498.99,1,2.193,-5.907,0,0
36.579,0.35273,7.5784e+05,498.96,1,2.2661,-5.8339,0,0
36.494,0.35852,7.5638e+05,498.93,1,2.3392,-5.7608,0,0
36.409,0.36433,7.549e+05,498.89,1,2.4123,-5.6877,0,0
36.324,0.37013,7.5342e+05,498.85,1,2.4854,-5.6146,0,0
36.243,0.37627,7.5201e+05,498.82,1,2.5585,-5.5415,0,0
36.169,0.38285,7.5072e+05,498.78,1,2.6316,-5.4684,0,0
36.066,0.39037,7.4893e+05,498.74,1,2.7047,-5.3953,0,0
35.95,0.39837,7.469e+05,498.69,1,2.7778,-5.3222,0,0
35.812,0.40738,7.4448e+05,498.63,1,2.8509,-5.2491,0,0
35.671,0.41643,7.4203e+05,498.57,1,2.924,-5.176,0,0
35.534,0.42505,7.3961e+05,498.51,1,2.9971,-5.1029,0,0
35.395,0.43372,7.3718e+05,498.44,1,3.0702,-5.0298,0,0
35.256,0.44247,7.3473e+05,498.38,1,3.1433,-4.9567,0,0
35.108,0.45151,7.3214e+05,498.32,1,3.2164,-4.8836,0,0
34.956,0.46075,7.2945e+05,498.25,1,3.2895,-4.8105,0,0
34.792,0.47036,7.2655e+05,498.17,1,3.3626,-4.7374,0,0
34.625,0.48006,7.2361e+05,498.1,1,3.4357,-4.6643,0,0
34.448,0.4901,7.2047e+05,498.02,1,3.5088,-4.5912,0,0
34.268,0.5002,7.1727e+05,497.94,1,3.5819,-4.5181,0,0
34.079,0.51043,7.1391e+05,497.85,1,3.655,-4.445,0,0
33.887,0.52071,7.105e+05,497.76,1,3.7281,-4.3719,0,0
33.693,0.53104,7.0704e+05,497.67,1,3.8012,-4.2988,0,0
33.491,0.54206,7.0343e+05,497.58,1,3.8743,-4.2257,0,0
33.286,0.55339,6.9975e+05,497.48,1,3.9474,-4.1526,0,0
33.056,0.5651,6.9562e+05,497.38,1,4.0205,-4.0795,0,0
32.819,0.57654,6.9135e+05,497.26,1,4.0936,-4.0064,0,0
32.588,0.58826,6.8719e+05,497.15,1,4.1667,-3.9333,0,0
32.338,0.60061,6.8266e+05,497.03,1,4.2398,-3.8602,0,0
32.084,0.61288,6.7806e+05,496.91,1,4.3129,-3.7871,0,0
31.82,0.62575,6.7327e+05,496.78,1,4.386,-3.714,0,0
31.548,0.63826,6.6831e+05,496.65,1,4.4591,-3.6409,0,0
31.29,0.65005,6.636e+05,496.53,1,4.5322,-3.5678,0,0
31.026,0.66246,6.5876e+05,496.4,1,4.6053,-3.4947,0,0
30.737,0.67538,6.5345e+05,496.25,1,4.6784,-3.4216,0,0
30.441,0.68869,6.48e+05,496.1,1,4.7515,-3.3485,0,0
30.145,0.70179,6.4254e+05,495.95,1,4.8246,-3.2754,0,0
29.842,0.71508,6.3692e+05,495.8,1,4.8977,-3.2023,0,0
29.533,0.7285,6.3117e+05,495.64,1,4.9708,-3.1292,0,0
29.22,0.74185,6.2535e+05,495.48,1,5.0439,-3.0561,0,0
28.902,0.7553,6.194e+05,495.31,1,5.117,-2.983,0,0
28.582,0.76876,6.1339e+05,495.14,1,5.1901,-2.9099,0,0
28.258,0.78225,6.073e+05,494.97,1,5.2632,-2.8368,0,0
27.931,0.79579,6.0112e+05,494.8,1,5.3363,-2.7637,0,0
27.599,0.80937,5.9484e+05,494.62,1,5.4094,-2.6906,0,0
27.265,0.82299,5.8848e+05,494.43,1,5.4825,-2.6175,0,0
26.927,0.83662,5.8206e+05,494.25,1,5.5556,-2.5444,0,0
26.588,0.85027,5.7557e+05,494.06,1,5.6287,-2.4713,0,0
26.247,0.86393,5.6901e+05,493.87,1,5.7018,-2.3982,0,0
25.904,0.8776,5.6241e+05,493.67,1,5.7749,-2.3251,0,0
25.559,0.89127,5.5575e+05,493.47,1,5.848,-2.252,0,0
25.213,0.90496,5.4905e+05,493.27,1,5.9211,-2.1789,0,0
24.866,0.91865,5.423e+05,493.06,1,5.9942,-2.1058,0,0
24.518,0.93234,5.3551e+05,492.86,1,6.0673,-2.0327,0,0
24.17,0.94604,5.2869e+05,492.65,1,6.1404,-1.9596,0,0
23.82,0.95974,5.2182e+05,492.43,1,6.2135,-1.8865,0,0
23.47,0.97346,5.1491e+05,492.21,1,6.2866,-1.8134,0,0
23.119,0.98719,5.0797e+05,491.99,1,6.3597,-1.7403,0,0
22.767,1.001,5.0098e+05,491.77,1,6.4328,-1.6672,0,0
22.414,1.0148,4.9395e+05,491.54,1,6.5059,-1.5941,0,0
22.061,1.0286,4.8689e+05,491.31,1,6.579,-1.521,0,0
21.707,1.0425,4.7979e+05,491.08,1,6.6521,-1.4479,0,0
21.351,1.0565,4.7264e+05,490.84,1,6.7252,-1.3748,0,0
20.995,1.0705,4.6544e+05,490.6,1,6.7983,-1.3017,0,0
20.637,1.0846,4.582e+05,490.35,1,6.8714,-1.2286,0,0
20.28,1.0987,4.5093e+05,490.1,1,6.9445,-1.1555,0,0
19.931,1.1128,4.4381e+05,489.86,1,7.0176,-1.0824,0,0
19.56,1.1277,4.3623e+05,489.59,1,7.0907,-1.0093,0,0
19.18,1.1428,4.2841e+05,489.31,1,7.1638,-0.9362,0,0
18.819,1.1573,4.2098e+05,489.04,1,7.2369,-0.8631,0,0
18.462,1.1717,4.1359e+05,488.77,1,7.31,-0.79,0,0
18.092,1.1869,4.0591e+05,488.49,1,7.3831,-0.7169,0,0
17.701,1.2031,3.9776e+05,488.18,1,7.4562,-0.6438,0,0
17.305,1.2195,3.8947e+05,487.86,1,7.5293,-0.5707,0,0
16.919,1.2357,3.8137e+05,487.55,1,7.6024,-0.4976,0,0
16.528,1.2521,3.7315e+05,487.22,1,7.6755,-0.4245,0,0
16.15,1.2682,3.6515e+05,486.9,1,7.7486,-0.3514,0,0
15.765,1.2848,3.5697e+05,486.57,1,7.8217,-0.2783,0,0
15.354,1.303,3.4822e+05,486.2,1,7.8948,-0.2052,0,0
14.94,1.3213,3.3939e+05,485.83,1,7.9679,-0.1321,0,0
14.56,1.3375,3.3123e+05,485.47,1,8.041,-0.059,0,0
14.234,1.3529,3.2421e+05,485.16,1,8.1141,0.0141,0,0
13.847,1.3719,3.1584e+05,484.79,1,8.1872,0.0872,0,0
13.359,1.394,3.0526e+05,484.3,1,8.2603,0.1603,0,0
12.984,1.412,2.971e+05,483.92,1,8.3334,0.2334,0,0
12.657,1.4274,2.8996e+05,483.57,1,8.4065,0.3065,0,0
12.305,1.445,2.8225e+05,483.19,1,8.4796,0.3796,0,0
11.954,1.4626,2.7454e+05,482.81,1,8.5527,0.4527,0,0
11.599,1.481,2.667e+05,482.4,1,8.6258,0.5258,0,0
11.235,1.5002,2.5865e+05,481.98,1,8.6989,0.5989,0,0
10.868,1.5197,2.5051e+05,481.54,1,8.772,0.672,0,0
10.519,1.5387,2.4274e+05,481.1,1,8.8451,0.7451,0,0
10.165,1.5582,2.3485e+05,480.65,1,8.9182,0.8182,0,0
9.8129,1.5786,2.2696e+05,480.19,1,8.9913,0.8913,0,0
9.4337,1.6007,2.1844e+05,479.67,1,9.0644,0.9644,0,0
9.0758,1.6223,2.1037e+05,479.17,1,9.1375,1.0375,0,0
8.7803,1.6405,2.0369e+05,478.74,1,9.2106,1.1106,0,0
8.4979,1.6603,1.973e+05,478.31,1,9.2837,1.1837,0,0
8.2444,1.6787,1.9154e+05,477.92,1,9.3568,1.2568,0,0
8.1257,1.6838,1.8884e+05,477.73,1,9.4299,1.3299,0,0
8.0393,1.6855,1.8688e+05,477.59,1,9.503,1.403,0,0
8.0333,1.6853,1.8674e+05,477.58,1,9.5761,1.4761,0,0
8.0382,1.6849,1.8685e+05,477.58,1,9.6492,1.5492,0,0
8.0432,1.6844,1.8696e+05,477.59,1,9.7223,1.6223,0,0
8.0493,1.6838,1.871e+05,477.6,1,9.7954,1.6954,0,0
8.1063,1.6799,1.884e+05,477.69,1,9.8685,1.7685,0,0
8.2289,1.6712,1.9119e+05,477.89,1,9.9416,1.8416,0,0
8.4434,1.6568,1.9606e+05,478.22,1,10.015,1.9147,0,0
8.7302,1.6382,2.0256e+05,478.65,1,10.088,1.9878,0,0
9.0949,1.6154,2.108e+05,479.19,1,10.161,2.0609,0,0
9.5289,1.5886,2.2058e+05,479.8,1,10.234,2.134,0,0
9.92,1.5662,2.2936e+05,480.33,1,10.307,2.2071,0,0
10.211,1.5494,2.3586e+05,480.71,1,10.38,2.2802,0,0
10.45,1.5352,2.412e+05,481.02,1,10.453,2.3533,0,0
10.585,1.5291,2.4422e+05,481.18,1,10.526,2.4264,0,0
10.634,1.5295,2.4531e+05,481.24,1,10.599,2.4995,0,0
10.659,1.53,2.4586e+05,481.27,1,10.673,2.5726,0,0
10.648,1.5307,2.4561e+05,481.26,1,10.746,2.6457,0,0
10.636,1.5315,2.4535e+05,481.25,1,10.819,2.7188,0,0
10.625,1.5322,2.451e+05,481.23,1,10.892,2.7919,0,0
10.593,1.534,2.4439e+05,481.19,1,10.965,2.865,0,0
10.54,1.5369,2.4322e+05,481.13,1,11.038,2.9381,0,0
10.464,1.5411,2.4151e+05,481.03,1,11.111,3.0112,0,0
10.368,1.5463,2.3937e+05,480.91,1,11.184,3.0843,0,0
10.24,1.5534,2.3652e+05,480.74,1,11.257,3.1574,0,0
10.067,1.5632,2.3265e+05,480.52,1,11.33,3.2305,0,0
9.8637,1.5746,2.2809e+05,480.25,1,11.404,3.3036,0,0
9.6666,1.5859,2.2367e+05,479.99,1,11.477,3.3767,0,0
9.4754,1.597,2.1937e+05,479.72,1,11.55,3.4498,0,0
9.279,1.6089,2.1495e+05,479.45,1,11.623,3.5229,0,0
9.0683,1.6218,2.102e+05,479.15,1,11.696,3.596,0,0
8.8388,1.6361,2.0501e+05,478.82,1,11.769,3.6691,0,0
8.5937,1.6516,1.9947e+05,478.45,1,11.842,3.7422,0,0
8.3387,1.6681,1.9368e+05,478.06,1,11.915,3.8153,0,0
8.0786,1.6852,1.8777e+05,477.65,1,11.988,3.8884,0,0
7.8163,1.703,1.818e+05,477.23,1,12.062,3.9615,0,0
7.5544,1.7211,1.7582e+05,476.79,1,12.135,4.0346,0,0
7.2952,1.7396,1.6989e+05,476.35,1,12.208,4.1077,0,0
7.04,1.7582,1.6404e+05,475.89,1,12.281,4.1808,0,0
6.7882,1.7774,1.5826e+05,475.43,1,12.354,4.2539,0,0
6.5324,1.7976,1.5237e+05,474.94,1,12.427,4.327,0,0
6.2884,1.8168,1.4675e+05,474.46,1,12.5,4.4001,0,0
6.066,1.8342,1.4161e+05,474,1,12.573,4.4732,0,0
5.8694,1.8514,1.3707e+05,473.59,1,12.646,4.5463,0,0
5.663,1.8702,1.3228e+05,473.14,1,12.719,4.6194,0,0
5.4498,1.8888,1.2734e+05,472.66,1,12.792,4.6925,0,0
5.2637,1.9061,1.2302e+05,472.22,1,12.866,4.7656,0,0
5.0896,1.9229,1.1897e+05,471.8,1,12.939,4.8387,0,0
4.9286,1.9384,1.1522e+05,471.4,1,13.012,4.9118,0,0
4.7813,1.9533,1.1179e+05,471.03,1,13.085,4.9849,0,0
4.6359,1.9685,1.084e+05,470.64,1,13.158,5.058,0,0
4.489,1.9844,1.0497e+05,470.25,1,13.231,5.1311,0,0
4.3463,2.0006,1.0164e+05,469.85,1,13.304,5.2042,0,0
4.2014,2.0162,98250,469.43,1,13.377,5.2773,0,0
4.073,2.0309,95244,469.05,1,13.45,5.3504,0,0
3.9482,2.0454,92323,468.67,1,13.524,5.4235,0,0
3.8328,2.0595,89618,468.3,1,13.597,5.4966,0,0
3.7194,2.0734,86961,467.93,1,13.67,5.5697,0,0
3.6134,2.087,84475,467.58,1,13.743,5.6428,0,0
3.5093,2.1005,82033,467.23,1,13.816,5.7159,0,0
3.4104,2.1138,79710,466.87,1,13.889,5.789,0,0
3.3129,2.1271,77421,466.52,1,13.962,5.8621,0,0
3.2203,2.1406,75245,466.18,1,14.035,5.9352,0,0
3.1293,2.1542,73104,465.83,1,14.108,6.0083,0,0
3.0466,2.1668,71162,465.51,1,14.181,6.0814,0,0
2.967,2.1791,69289,465.19,1,14.254,6.1545,0,0
2.8939,2.1892,67569,464.89,1,14.328,6.2276,0,0
2.8235,2.1983,65911,464.59,1,14.401,6.3007,0,0
2.7653,2.2074,64541,464.33,1,14.474,6.3738,0,0
2.713,2.2165,63310,464.09,1,14.547,6.4469,0,0
2.6607,2.2256,62079,463.86,1,14.62,6.52,0,0
2.6084,2.2347,60847,463.62,1,14.693,6.5931,0,0
2.5579,2.2438,59659,463.39,1,14.766,6.6662,0,0
2.5086,2.2528,58497,463.15,1,14.839,6.7393,0,0
2.4593,2.2618,57336,462.91,1,14.912,6.8124,0,0
2.41,2.2708,56175,462.68,1,14.986,6.8855,0,0
2.3621,2.2798,55047,462.44,1,15.059,6.9586,0,0
2.3155,2.2888,53949,462.19,1,15.132,7.0317,0,0
2.2689,2.2977,52852,461.95,1,15.205,7.1048,0,0
2.2224,2.3067,51755,461.71,1,15.278,7.1779,0,0
2.1771,2.3157,50688,461.46,1,15.351,7.251,0,0
2.1336,2.3247,49665,461.22,1,15.424,7.3241,0,0
2.0902,2.3337,48641,460.98,1,15.497,7.3972,0,0
2.0467,2.3427,47618,460.73,1,15.57,7.4703,0,0
2.0042,2.3516,46617,460.49,1,15.643,7.5434,0,0
1.9641,2.3604,45670,460.24,1,15.717,7.6165,0,0
1.9239,2.3691,44724,459.99,1,15.79,7.6896,0,0
1.8837,2.3779,43778,459.75,1,15.863,7.7627,0,0
1.8441,2.3867,42845,459.5,1,15.936,7.8358,0,0
1.8077,2.3955,41987,459.26,1,16.009,7.9089,0,0
1.7712,2.4042,41128,459.02,1,16.082,7.982,0,0
1.7347,2.413,40269,458.78,1,16.155,8.0551,0,0
1.6982,2.4218,39410,458.54,1,16.228,8.1282,0,0
1.6609,2.4315,38532,458.27,1,16.301,8.2013,0,0
1.6236,2.4412,37653,458.01,1,16.374,8.2744,0,0
1.5826,2.4521,36689,457.71,1,16.448,8.3475,0,0
1.5414,2.463,35719,457.4,1,16.521,8.4206,0,0
1.4985,2.475,34710,457.07,1,16.594,8.4937,0,0
1.4514,2.4882,33602,456.7,1,16.667,8.5668,0,0
1.4003,2.5032,32400,456.28,1,16.74,8.6399,0,0
1.3462,2.5197,31127,455.82,1,16.813,8.713,0,0
1.2961,2.5352,29950,455.37,1,16.886,8.7861,0,0
1.271,2.5425,29359,455.14,1,16.959,8.8592,0,0
1.2646,2.5442,29209,455.08,1,17.032,8.9323,0,0
1.2556,2.5468,28997,455,1,17.105,9.0054,0,0
1.2421,2.5511,28679,454.87,1,17.179,9.0785,0,0
1.2234,2.5572,28241,454.69,1,17.252,9.1516,0,0
1.213,2.5558,27997,454.61,1,17.325,9.2247,0,0
7.4094,0.41294,1.7896e+05,492.66,1,17.398,9.2978,0,0
7.6844,0.34831,1.8547e+05,493.07,1,17.471,9.3709,0,0
7.762,0.31732,1.8724e+05,493.04,1,17.544,9.444,0,0
7.8289,0.28982,1.8877e+05,493.02,1,17.617,9.5171,0,0
7.8973,0.26882,1.9038e+05,493.09,1,17.69,9.5902,0,0
7.9612,0.2477,1.9188e+05,493.16,1,17.763,9.6633,0,0
7.9772,0.22518,1.9226e+05,493.19,1,17.836,9.7364,0,0
7.9933,0.20266,1.9264e+05,493.21,1,17.91,9.8095,0,0
8.0093,0.18014,1.9302e+05,493.24,1,17.983,9.8826,0,0
8.0254,0.15762,1.934e+05,493.26,1,18.056,9.9557,0,0
8.0252,0.13236,1.9346e+05,493.42,1,18.129,10.029,0,0
8.022,0.1066,1.9347e+05,493.61,1,18.202,10.102,0,0
8.028,0.086751,1.9376e+05,493.96,1,18.275,10.175,0,0
8.0373,0.06911,1.9416e+05,494.38,1,18.348,10.248,0,0
8.1058,0.062348,1.959e+05,494.76,1,18.421,10.321,0,0
8.2122,0.062571,1.9851e+05,495.11,1,18.494,10.394,0,0
8.3187,0.062794,2.0112e+05,495.45,1,18.567,10.467,0,0
8.4251,0.063018,2.0373e+05,495.8,1,18.64,10.54,0,0
8.5316,0.063241,2.0633e+05,496.15,1,18.714,10.614,0,0
8.638,0.063465,2.0894e+05,496.5,1,18.787,10.687,0,0
8.7445,0.063688,2.1155e+05,496.84,1,18.86,10.76,0,0
8.8509,0.063912,2.1416e+05,497.19,1,18.933,10.833,0,0
8.9547,0.064232,2.1669e+05,497.51,1,19.006,10.906,0,0
9.0239,0.065795,2.1826e+05,497.48,1,19.079,10.979,0,0
9.0931,0.067358,2.1983e+05,497.45,1,19.152,11.052,0,0
9.1623,0.068921,2.2139e+05,497.42,1,19.225,11.125,0,0
9.2315,0.070484,2.2296e+05,497.39,1,19.298,11.198,0,0
9.3007,0.072046,2.2453e+05,497.36,1,19.372,11.271,0,0
9.3699,0.073609,2.2609e+05,497.33,1,19.445,11.345,0,0
9.4391,0.075172,2.2766e+05,497.3,1,19.518,11.418,0,0
9.5083,0.076735,2.2923e+05,497.27,1,19.591,11.491,0,0
9.5576,0.079358,2.3031e+05,497.18,1,19.664,11.564,0,0
9.5854,0.083132,2.3086e+05,497.04,1,19.737,11.637,0,0
9.6131,0.086906,2.3142e+05,496.89,1,19.81,11.71,0,0
9.6409,0.09068,2.3197e+05,496.75,1,19.883,11.783,0,0
9.6687,0.094454,2.3253e+05,496.6,1,19.956,11.856,0,0
9.6964,0.098228,2.3308e+05,496.46,1,20.029,11.929,0,0
9.7242,0.102,2.3363e+05,496.32,1,20.103,12.002,0,0
9.752,0.10578,2.3419e+05,496.17,1,20.176,12.076,0,0
9.7797,0.10955,2.3474e+05,496.03,1,20.249,12.149,0,0
9.7931,0.11578,2.3495e+05,495.86,1,20.322,12.222,0,0
9.8036,0.12251,2.351e+05,495.69,1,20.395,12.295,0,0
9.814,0.12924,2.3524e+05,495.51,1,20.468,12.368,0,0
9.8244,0.13597,2.3538e+05,495.34,1,20.541,12.441,0,0
9.8349,0.1427,2.3553e+05,495.17,1,20.614,12.514,0,0
9.8453,0.14943,2.3567e+05,495,1,20.687,12.587,0,0
9.8558,0.15616,2.3581e+05,494.83,1,20.76,12.66,0,0
9.8662,0.16289,2.3595e+05,494.65,1,20.833,12.733,0,0
9.8749,0.17001,2.3606e+05,494.49,1,20.907,12.807,0,0
9.8714,0.17995,2.3591e+05,494.36,1,20.98,12.88,0,0
9.8678,0.18988,2.3576e+05,494.23,1,21.053,12.953,0,0
9.8643,0.19981,2.3561e+05,494.1,1,21.126,13.026,0,0
9.8607,0.20974,2.3546e+05,493.98,1,21.199,13.099,0,0
9.8571,0.21968,2.3532e+05,493.85,1,21.272,13.172,0,0
9.8536,0.22961,2.3517e+05,493.72,1,21.345,13.245,0,0
9.85,0.23954,2.3502e+05,493.59,1,21.418,13.318,0,0
9.8465,0.24948,2.3487e+05,493.46,1,21.491,13.391,0,0
9.8377,0.26036,2.346e+05,493.34,1,21.564,13.464,0,0
9.8195,0.27296,2.3412e+05,493.21,1,21.638,13.538,0,0
9.8013,0.28556,2.3365e+05,493.08,1,21.711,13.611,0,0
9.7832,0.29816,2.3317e+05,492.95,1,21.784,13.684,0,0
9.765,0.31076,2.3269e+05,492.82,1,21.857,13.757,0,0
9.7468,0.32337,2.3222e+05,492.69,1,21.93,13.83,0,0
9.7287,0.33597,2.3174e+05,492.56,1,22.003,13.903,0,0
9.7105,0.34857,2.3126e+05,492.43,1,22.076,13.976,0,0
9.6923,0.36117,2.3078e+05,492.31,1,22.149,14.049,0,0
9.664,0.37475,2.3008e+05,492.18,1,22.222,14.122,0,0
9.6267,0.3892,2.2917e+05,492.05,1,22.295,14.195,0,0
9.5895,0.40365,2.2827e+05,491.91,1,22.369,14.269,0,0
9.5523,0.4181,2.2737e+05,491.78,1,22.442,14.342,0,0
9.5151,0.43255,2.2646e+05,491.65,1,22.515,14.415,0,0
9.4778,0.447,2.2556e+05,491.52,1,22.588,14.488,0,0
9.4406,0.46145,2.2465e+05,491.39,1,22.661,14.561,0,0
9.4034,0.4759,2.2375e+05,491.26,1,22.734,14.634,0,0
9.3662,0.49035,2.2284e+05,491.13,1,22.807,14.707,0,0
9.314,0.50557,2.2161e+05,491.01,1,22.88,14.78,0,0
9.2537,0.52122,2.202e+05,490.91,1,22.953,14.853,0,0
9.1933,0.53687,2.1879e+05,490.8,1,23.027,14.926,0,0
9.133,0.55253,2.1738e+05,490.7,1,23.1,15,0,0
9.0726,0.56818,2.1597e+05,490.6,1,23.173,15.073,0,0
9.0123,0.58383,2.1456e+05,490.49,1,23.246,15.146,0,0
8.952,0.59948,2.1315e+05,490.39,1,23.319,15.219,0,0
8.8916,0.61513,2.1174e+05,490.28,1,23.392,15.292,0,0
8.8313,0.63078,2.1033e+05,490.18,1,23.465,15.365,0,0
8.7589,0.64667,2.0863e+05,490.05,1,23.538,15.438,0,0
8.6812,0.66266,2.0681e+05,489.91,1,23.611,15.511,0,0
8.6035,0.67865,2.0498e+05,489.77,1,23.684,15.584,0,0
8.5257,0.69464,2.0316e+05,489.63,1,23.757,15.657,0,0
8.448,0.71063,2.0134e+05,489.49,1,23.831,15.731,0,0
8.3703,0.72662,1.9952e+05,489.35,1,23.904,15.804,0,0
8.2926,0.74261,1.9769e+05,489.21,1,23.977,15.877,0,0
8.2149,0.75859,1.9587e+05,489.07,1,24.05,15.95,0,0
8.1372,0.77458,1.9405e+05,488.93,1,24.123,16.023,0,0
8.0531,0.79024,1.9207e+05,488.78,1,24.196,16.096,0,0
7.9661,0.80575,1.9003e+05,488.63,1,24.269,16.169,0,0
7.8791,0.82125,1.8798e+05,488.47,1,24.342,16.242,0,0
7.7922,0.83675,1.8594e+05,488.32,1,24.415,16.315,0,0
7.7052,0.85226,1.839e+05,488.17,1,24.489,16.389,0,0
7.6182,0.86776,1.8185e+05,488.01,1,24.562,16.462,0,0
7.5312,0.88327,1.7981e+05,487.86,1,24.635,16.535,0,0
7.4442,0.89877,1.7776e+05,487.7,1,24.708,16.608,0,0
7.3572,0.91427,1.7572e+05,487.55,1,24.781,16.681,0,0
7.2708,0.92902,1.7368e+05,487.39,1,24.854,16.754,0,0
7.1847,0.94328,1.7165e+05,487.22,1,24.927,16.827,0,0
7.0986,0.95754,1.6962e+05,487.06,1,25,16.9,0,0
7.0126,0.97181,1.6758e+05,486.89,1,25.073,16.973,0,0
6.9265,0.98607,1.6555e+05,486.73,1,25.146,17.046,0,0
6.8404,1.0003,1.6352e+05,486.56,1,25.219,17.119,0,0
6.7543,1.0146,1.6149e+05,486.4,1,25.293,17.193,0,0
6.6683,1.0289,1.5945e+05,486.23,1,25.366,17.266,0,0
6.5822,1.0431,1.5742e+05,486.07,1,25.439,17.339,0,0
6.5,1.0567,1.5548e+05,485.9,1,25.512,17.412,0,0
6.4222,1.0694,1.5363e+05,485.74,1,25.585,17.485,0,0
6.3443,1.0822,1.5178e+05,485.57,1,25.658,17.558,0,0
6.2664,1.095,1.4993e+05,485.4,1,25.731,17.631,0,0
6.1886,1.1077,1.4808e+05,485.24,1,25.804,17.704,0,0
6.1107,1.1205,1.4624e+05,485.07,1,25.877,17.777,0,0
6.0328,1.1332,1.4439e+05,484.91,1,25.951,17.851,0,0
5.955,1.146,1.4254e+05,484.74,1,26.024,17.924,0,0
5.8771,1.1588,1.4069e+05,484.58,1,26.097,17.997,0,0
5.8025,1.171,1.3892e+05,484.41,1,26.17,18.07,0,0
5.736,1.1821,1.3734e+05,484.26,1,26.243,18.143,0,0
5.6696,1.1932,1.3575e+05,484.1,1,26.316,18.216,0,0
5.6031,1.2043,1.3417e+05,483.94,1,26.389,18.289,0,0
5.5367,1.2154,1.3258e+05,483.78,1,26.462,18.362,0,0
5.4702,1.2264,1.31e+05,483.63,1,26.535,18.435,0,0
5.4038,1.2375,1.2942e+05,483.47,1,26.608,18.508,0,0
5.3373,1.2486,1.2783e+05,483.31,1,26.681,18.581,0,0
5.2709,1.2597,1.2625e+05,483.15,1,26.755,18.655,0,0
5.2048,1.2707,1.2467e+05,483,1,26.828,18.728,0,0
5.1533,1.2797,1.2344e+05,482.86,1,26.901,18.801,0,0
5.1017,1.2887,1.2221e+05,482.73,1,26.974,18.874,0,0
5.0502,1.2977,1.2098e+05,482.59,1,27.047,18.947,0,0
4.9987,1.3067,1.1975e+05,482.46,1,27.12,19.02,0,0
4.9471,1.3157,1.1851e+05,482.33,1,27.193,19.093,0,0
4.8956,1.3247,1.1728e+05,482.19,1,27.266,19.166,0,0
4.8441,1.3338,1.1605e+05,482.06,1,27.339,19.239,0,0
4.7925,1.3428,1.1482e+05,481.93,1,27.413,19.312,0,0
4.741,1.3518,1.1359e+05,481.79,1,27.486,19.386,0,0
4.7024,1.3587,1.1266e+05,481.69,1,27.559,19.459,0,0
4.6691,1.3648,1.1187e+05,481.6,1,27.632,19.532,0,0
4.6359,1.3708,1.1107e+05,481.5,1,27.705,19.605,0,0
4.6027,1.3769,1.1027e+05,481.41,1,27.778,19.678,0,0
4.5695,1.383,1.0948e+05,481.32,1,27.851,19.751,0,0
4.5362,1.3891,1.0868e+05,481.23,1,27.924,19.824,0,0
4.503,1.3951,1.0789e+05,481.14,1,27.997,19.897,0,0
4.4698,1.4012,1.0709e+05,481.05,1,28.07,19.97,0,0
4.4365,1.4073,1.063e+05,480.96,1,28.143,20.043,0,0
