"Density","Mach","Pressure","Temperature","vtkValidPointMask","arc_length","Points:0","Points:1","Points:2"
177.7,0.22769,8.5964e+06,197.37,1,0,-8.1,0,0
177.66,0.22846,8.5926e+06,197.34,1,0.0731,-8.0269,0,0
177.61,0.22923,8.5888e+06,197.32,1,0.1462,-7.9538,0,0
177.57,0.23,8.5849e+06,197.29,1,0.2193,-7.8807,0,0
177.53,0.23077,8.5811e+06,197.27,1,0.2924,-7.8076,0,0
177.48,0.23154,8.5773e+06,197.24,1,0.3655,-7.7345,0,0
177.44,0.23231,8.5735e+06,197.22,1,0.4386,-7.6614,0,0
177.39,0.23319,8.5693e+06,197.19,1,0.5117,-7.5883,0,0
177.32,0.23465,8.5633e+06,197.15,1,0.5848,-7.5152,0,0
177.25,0.2361,8.5574e+06,197.11,1,0.6579,-7.4421,0,0
177.18,0.23755,8.5514e+06,197.07,1,0.731,-7.369,0,0
177.11,0.239,8.5455e+06,197.03,1,0.8041,-7.2959,0,0
177.04,0.24045,8.5395e+06,196.99,1,0.8772,-7.2228,0,0
176.97,0.2419,8.5335e+06,196.95,1,0.9503,-7.1497,0,0
176.89,0.24357,8.5263e+06,196.9,1,1.0234,-7.0766,0,0
176.77,0.24572,8.5161e+06,196.84,1,1.0965,-7.0035,0,0
176.65,0.24788,8.5059e+06,196.77,1,1.1696,-6.9304,0,0
176.53,0.25004,8.4957e+06,196.7,1,1.2427,-6.8573,0,0
176.4,0.253,8.4841e+06,196.62,1,1.3158,-6.7842,0,0
176.26,0.25609,8.4723e+06,196.54,1,1.3889,-6.7111,0,0
176.12,0.25919,8.4604e+06,196.47,1,1.462,-6.638,0,0
175.96,0.2626,8.4466e+06,196.37,1,1.5351,-6.5649,0,0
175.76,0.26647,8.4299e+06,196.26,1,1.6082,-6.4918,0,0
175.56,0.27034,8.4131e+06,196.15,1,1.6813,-6.4187,0,0
175.37,0.27421,8.3964e+06,196.04,1,1.7544,-6.3456,0,0
175.15,0.27848,8.3785e+06,195.92,1,1.8275,-6.2725,0,0
174.94,0.28278,8.3605e+06,195.79,1,1.9006,-6.1994,0,0
174.73,0.28708,8.3425e+06,195.67,1,1.9737,-6.1263,0,0
174.51,0.29157,8.3236e+06,195.55,1,2.0468,-6.0532,0,0
174.27,0.29629,8.3037e+06,195.41,1,2.1199,-5.9801,0,0
174.04,0.30101,8.2838e+06,195.27,1,2.193,-5.907,0,0
173.8,0.30574,8.2638e+06,195.14,1,2.2661,-5.8339,0,0
173.54,0.31075,8.2421e+06,194.99,1,2.3392,-5.7608,0,0
173.28,0.31598,8.2196e+06,194.84,1,2.4123,-5.6877,0,0
172.97,0.32217,8.1943e+06,194.66,1,2.4854,-5.6146,0,0
172.63,0.3289,8.1651e+06,194.46,1,2.5585,-5.5415,0,0
172.22,0.33635,8.1308e+06,194.22,1,2.6316,-5.4684,0,0
171.8,0.34368,8.0961e+06,193.98,1,2.7047,-5.3953,0,0
171.38,0.35096,8.0612e+06,193.74,1,2.7778,-5.3222,0,0
170.97,0.35823,8.027e+06,193.5,1,2.8509,-5.2491,0,0
170.56,0.36556,7.9925e+06,193.26,1,2.924,-5.176,0,0
170.11,0.37319,7.9556e+06,193,1,2.9971,-5.1029,0,0
169.65,0.38099,7.9175e+06,192.73,1,3.0702,-5.0298,0,0
169.16,0.38905,7.8773e+06,192.45,1,3.1433,-4.9567,0,0
168.64,0.39738,7.8352e+06,192.15,1,3.2164,-4.8836,0,0
168.12,0.40588,7.7919e+06,191.84,1,3.2895,-4.8105,0,0
167.55,0.41472,7.7462e+06,191.51,1,3.3626,-4.7374,0,0
166.98,0.42364,7.6998e+06,191.18,1,3.4357,-4.6643,0,0
166.37,0.43278,7.6505e+06,190.82,1,3.5088,-4.5912,0,0
165.77,0.44193,7.6014e+06,190.46,1,3.5819,-4.5181,0,0
165.16,0.45111,7.553e+06,190.11,1,3.655,-4.445,0,0
164.53,0.46094,7.5021e+06,189.73,1,3.7281,-4.3719,0,0
163.76,0.4719,7.4406e+06,189.28,1,3.8012,-4.2988,0,0
163,0.48255,7.3809e+06,188.83,1,3.8743,-4.2257,0,0
162.27,0.49301,7.3229e+06,188.4,1,3.9474,-4.1526,0,0
161.52,0.50351,7.2645e+06,187.95,1,4.0205,-4.0795,0,0
160.73,0.51485,7.202e+06,187.48,1,4.0936,-4.0064,0,0
159.84,0.52709,7.1331e+06,186.95,1,4.1667,-3.9333,0,0
158.95,0.53892,7.0647e+06,186.43,1,4.2398,-3.8602,0,0
158.07,0.55074,6.997e+06,185.9,1,4.3129,-3.7871,0,0
157.16,0.56291,6.9269e+06,185.35,1,4.386,-3.714,0,0
156.2,0.57538,6.8544e+06,184.78,1,4.4591,-3.6409,0,0
155.22,0.58806,6.7805e+06,184.19,1,4.5322,-3.5678,0,0
154.22,0.60092,6.7053e+06,183.59,1,4.6053,-3.4947,0,0
153.19,0.61398,6.6287e+06,182.97,1,4.6784,-3.4216,0,0
152.14,0.62725,6.5508e+06,182.33,1,4.7515,-3.3485,0,0
151.07,0.64071,6.4716e+06,181.68,1,4.8246,-3.2754,0,0
149.97,0.65435,6.3914e+06,181.01,1,4.8977,-3.2023,0,0
148.84,0.66817,6.3101e+06,180.32,1,4.9708,-3.1292,0,0
147.7,0.68216,6.2278e+06,179.62,1,5.0439,-3.0561,0,0
146.54,0.69633,6.1447e+06,178.91,1,5.117,-2.983,0,0
145.36,0.71066,6.0608e+06,178.18,1,5.1901,-2.9099,0,0
144.15,0.72514,5.9763e+06,177.44,1,5.2632,-2.8368,0,0
142.93,0.73978,5.8912e+06,176.69,1,5.3363,-2.7637,0,0
141.7,0.75457,5.8056e+06,175.92,1,5.4094,-2.6906,0,0
140.44,0.76951,5.7194e+06,175.14,1,5.4825,-2.6175,0,0
139.17,0.78458,5.633e+06,174.34,1,5.5556,-2.5444,0,0
137.88,0.79979,5.5462e+06,173.54,1,5.6287,-2.4713,0,0
136.58,0.81512,5.4593e+06,172.72,1,5.7018,-2.3982,0,0
135.27,0.83057,5.3723e+06,171.89,1,5.7749,-2.3251,0,0
133.94,0.84613,5.2852e+06,171.05,1,5.848,-2.252,0,0
132.61,0.86181,5.1982e+06,170.2,1,5.9211,-2.1789,0,0
131.26,0.87759,5.1112e+06,169.34,1,5.9942,-2.1058,0,0
129.9,0.89349,5.0245e+06,168.47,1,6.0673,-2.0327,0,0
128.54,0.90949,4.938e+06,167.59,1,6.1404,-1.9596,0,0
127.16,0.92561,4.8518e+06,166.71,1,6.2135,-1.8865,0,0
125.78,0.94183,4.766e+06,165.81,1,6.2866,-1.8134,0,0
124.39,0.95816,4.6806e+06,164.91,1,6.3597,-1.7403,0,0
122.99,0.9746,4.5956e+06,163.99,1,6.4328,-1.6672,0,0
121.59,0.99117,4.511e+06,163.07,1,6.5059,-1.5941,0,0
120.18,1.0079,4.4268e+06,162.14,1,6.579,-1.521,0,0
118.76,1.0247,4.343e+06,161.2,1,6.6521,-1.4479,0,0
117.34,1.0416,4.2598e+06,160.26,1,6.7252,-1.3748,0,0
115.91,1.0587,4.1771e+06,159.3,1,6.7983,-1.3017,0,0
114.48,1.0759,4.0949e+06,158.34,1,6.8714,-1.2286,0,0
113.04,1.0933,4.0131e+06,157.37,1,6.9445,-1.1555,0,0
111.59,1.1108,3.9317e+06,156.38,1,7.0176,-1.0824,0,0
110.13,1.1286,3.8508e+06,155.39,1,7.0907,-1.0093,0,0
108.67,1.1465,3.7702e+06,154.38,1,7.1638,-0.9362,0,0
107.19,1.1647,3.6899e+06,153.37,1,7.2369,-0.8631,0,0
105.7,1.1831,3.61e+06,152.34,1,7.31,-0.79,0,0
104.21,1.2017,3.5305e+06,151.29,1,7.3831,-0.7169,0,0
102.7,1.2206,3.4513e+06,150.24,1,7.4562,-0.6438,0,0
101.18,1.2397,3.3724e+06,149.17,1,7.5293,-0.5707,0,0
99.656,1.2591,3.294e+06,148.09,1,7.6024,-0.4976,0,0
98.118,1.2788,3.2158e+06,146.99,1,7.6755,-0.4245,0,0
96.566,1.2989,3.1379e+06,145.87,1,7.7486,-0.3514,0,0
94.993,1.3194,3.0599e+06,144.74,1,7.8217,-0.2783,0,0
93.4,1.3404,2.9817e+06,143.57,1,7.8948,-0.2052,0,0
91.834,1.3614,2.9058e+06,142.42,1,7.9679,-0.1321,0,0
90.346,1.3807,2.8347e+06,141.33,1,8.041,-0.059,0,0
88.973,1.3993,2.7698e+06,140.31,1,8.1141,0.0141,0,0
87.411,1.4211,2.6968e+06,139.14,1,8.1872,0.0872,0,0
85.557,1.4468,2.6112e+06,137.74,1,8.2603,0.1603,0,0
83.738,1.4721,2.5286e+06,136.36,1,8.3334,0.2334,0,0
82.108,1.4951,2.4555e+06,135.1,1,8.4065,0.3065,0,0
80.66,1.5155,2.3914e+06,133.99,1,8.4796,0.3796,0,0
79.247,1.5357,2.3296e+06,132.88,1,8.5527,0.4527,0,0
77.763,1.5574,2.2655e+06,131.72,1,8.6258,0.5258,0,0
76.209,1.5804,2.1992e+06,130.49,1,8.6989,0.5989,0,0
74.57,1.6052,2.1301e+06,129.17,1,8.772,0.672,0,0
72.87,1.6312,2.0594e+06,127.8,1,8.8451,0.7451,0,0
71.249,1.6564,1.9929e+06,126.47,1,8.9182,0.8182,0,0
69.78,1.679,1.9335e+06,125.26,1,8.9913,0.8913,0,0
68.489,1.699,1.8819e+06,124.19,1,9.0644,0.9644,0,0
67.212,1.7194,1.8314e+06,123.12,1,9.1375,1.0375,0,0
65.877,1.7414,1.7792e+06,121.99,1,9.2106,1.1106,0,0
64.299,1.7673,1.7183e+06,120.64,1,9.2837,1.1837,0,0
62.645,1.7957,1.6555e+06,119.22,1,9.3568,1.2568,0,0
60.983,1.8236,1.5933e+06,117.77,1,9.4299,1.3299,0,0
59.505,1.8488,1.5386e+06,116.46,1,9.503,1.403,0,0
58.037,1.8749,1.485e+06,115.14,1,9.5761,1.4761,0,0
56.558,1.902,1.4317e+06,113.8,1,9.6492,1.5492,0,0
55.094,1.9288,1.3798e+06,112.46,1,9.7223,1.6223,0,0
53.641,1.9567,1.3288e+06,111.11,1,9.7954,1.6954,0,0
52.166,1.9849,1.2784e+06,109.72,1,9.8685,1.7685,0,0
50.712,2.0127,1.2288e+06,108.36,1,9.9416,1.8416,0,0
49.452,2.0374,1.1866e+06,107.14,1,10.015,1.9147,0,0
48.224,2.0619,1.1456e+06,105.94,1,10.088,1.9878,0,0
47.149,2.0852,1.1105e+06,104.88,1,10.161,2.0609,0,0
46.129,2.1075,1.0773e+06,103.87,1,10.234,2.134,0,0
45.295,2.1265,1.0505e+06,103.03,1,10.307,2.2071,0,0
44.597,2.1417,1.0281e+06,102.32,1,10.38,2.2802,0,0
44.231,2.1478,1.0165e+06,101.94,1,10.453,2.3533,0,0
43.865,2.1539,1.0049e+06,101.56,1,10.526,2.4264,0,0
43.499,2.16,9.9329e+05,101.19,1,10.599,2.4995,0,0
43.266,2.1637,9.8588e+05,100.94,1,10.673,2.5726,0,0
43.224,2.164,9.8452e+05,100.9,1,10.746,2.6457,0,0
43.181,2.1642,9.8317e+05,100.85,1,10.819,2.7188,0,0
43.139,2.1645,9.8181e+05,100.81,1,10.892,2.7919,0,0
43.185,2.1629,9.8324e+05,100.85,1,10.965,2.865,0,0
43.316,2.1594,9.8741e+05,100.99,1,11.038,2.9381,0,0
43.447,2.1558,9.9157e+05,101.13,1,11.111,3.0112,0,0
43.579,2.1523,9.9573e+05,101.27,1,11.184,3.0843,0,0
43.889,2.1448,1.0057e+06,101.59,1,11.257,3.1574,0,0
44.318,2.1347,1.0195e+06,102.04,1,11.33,3.2305,0,0
44.747,2.1246,1.0332e+06,102.49,1,11.404,3.3036,0,0
45.175,2.1145,1.047e+06,102.94,1,11.477,3.3767,0,0
45.81,2.1001,1.0678e+06,103.59,1,11.55,3.4498,0,0
46.546,2.0835,1.092e+06,104.34,1,11.623,3.5229,0,0
47.282,2.067,1.1163e+06,105.09,1,11.696,3.596,0,0
48.017,2.0505,1.1405e+06,105.84,1,11.769,3.6691,0,0
48.884,2.0317,1.1694e+06,106.7,1,11.842,3.7422,0,0
49.797,2.0121,1.2e+06,107.6,1,11.915,3.8153,0,0
50.573,1.9988,1.2263e+06,108.35,1,11.988,3.8884,0,0
51.306,1.9875,1.2511e+06,109.05,1,12.062,3.9615,0,0
51.621,1.9836,1.2618e+06,109.35,1,12.135,4.0346,0,0
51.819,1.9818,1.2685e+06,109.53,1,12.208,4.1077,0,0
52.017,1.98,1.2752e+06,109.71,1,12.281,4.1808,0,0
52.215,1.9782,1.2818e+06,109.9,1,12.354,4.2539,0,0
52.237,1.9784,1.2826e+06,109.91,1,12.427,4.327,0,0
52.219,1.9789,1.2819e+06,109.9,1,12.5,4.4001,0,0
52.202,1.9794,1.2813e+06,109.88,1,12.573,4.4732,0,0
52.184,1.98,1.2807e+06,109.86,1,12.646,4.5463,0,0
52.065,1.9824,1.2767e+06,109.75,1,12.719,4.6194,0,0
51.925,1.9853,1.2719e+06,109.62,1,12.792,4.6925,0,0
51.785,1.9881,1.2671e+06,109.49,1,12.866,4.7656,0,0
51.646,1.991,1.2623e+06,109.36,1,12.939,4.8387,0,0
51.296,1.9978,1.2505e+06,109.02,1,13.012,4.9118,0,0
50.908,2.0052,1.2373e+06,108.65,1,13.085,4.9849,0,0
50.353,2.0162,1.2186e+06,108.12,1,13.158,5.058,0,0
49.766,2.0279,1.1988e+06,107.56,1,13.231,5.1311,0,0
48.965,2.044,1.1722e+06,106.78,1,13.304,5.2042,0,0
48.12,2.0611,1.1443e+06,105.97,1,13.377,5.2773,0,0
47.082,2.0826,1.1105e+06,104.95,1,13.45,5.3504,0,0
46.004,2.105,1.0755e+06,103.88,1,13.524,5.4235,0,0
44.799,2.1304,1.037e+06,102.66,1,13.597,5.4966,0,0
43.566,2.1564,9.9769e+05,101.41,1,13.67,5.5697,0,0
42.414,2.1823,9.6166e+05,100.2,1,13.743,5.6428,0,0
41.282,2.2081,9.2645e+05,99.016,1,13.816,5.7159,0,0
40.18,2.2335,8.9292e+05,97.845,1,13.889,5.789,0,0
39.085,2.2588,8.5986e+05,96.679,1,13.962,5.8621,0,0
38.042,2.2844,8.288e+05,95.537,1,14.035,5.9352,0,0
37.015,2.31,7.9838e+05,94.403,1,14.108,6.0083,0,0
36.067,2.3333,7.708e+05,93.341,1,14.181,6.0814,0,0
35.147,2.3559,7.4422e+05,92.304,1,14.254,6.1545,0,0
34.367,2.3758,7.2178e+05,91.395,1,14.328,6.2276,0,0
33.644,2.3946,7.0105e+05,90.539,1,14.401,6.3007,0,0
32.937,2.4143,6.8126e+05,89.695,1,14.474,6.3738,0,0
32.237,2.4343,6.6191e+05,88.856,1,14.547,6.4469,0,0
31.538,2.4544,6.4257e+05,88.018,1,14.62,6.52,0,0
30.838,2.4744,6.2322e+05,87.18,1,14.693,6.5931,0,0
30.147,2.4949,6.0455e+05,86.332,1,14.766,6.6662,0,0
29.46,2.5157,5.863e+05,85.478,1,14.839,6.7393,0,0
28.773,2.5364,5.6806e+05,84.623,1,14.912,6.8124,0,0
28.086,2.5572,5.4981e+05,83.769,1,14.986,6.8855,0,0
27.427,2.5779,5.3259e+05,82.928,1,15.059,6.9586,0,0
26.795,2.5985,5.1636e+05,82.099,1,15.132,7.0317,0,0
26.162,2.6191,5.0013e+05,81.269,1,15.205,7.1048,0,0
25.53,2.6397,4.839e+05,80.44,1,15.278,7.1779,0,0
24.924,2.6601,4.6855e+05,79.629,1,15.351,7.251,0,0
24.356,2.68,4.5448e+05,78.845,1,15.424,7.3241,0,0
23.788,2.7,4.4041e+05,78.062,1,15.497,7.3972,0,0
23.22,2.72,4.2634e+05,77.278,1,15.57,7.4703,0,0
22.666,2.7402,4.1274e+05,76.503,1,15.643,7.5434,0,0
22.145,2.7612,4.003e+05,75.749,1,15.717,7.6165,0,0
21.624,2.7823,3.8785e+05,74.996,1,15.79,7.6896,0,0
21.104,2.8033,3.7541e+05,74.242,1,15.863,7.7627,0,0
20.587,2.8243,3.6315e+05,73.491,1,15.936,7.8358,0,0
20.093,2.8452,3.518e+05,72.746,1,16.009,7.9089,0,0
19.599,2.866,3.4046e+05,72.002,1,16.082,7.982,0,0
19.104,2.8869,3.2911e+05,71.258,1,16.155,8.0551,0,0
18.611,2.9078,3.1779e+05,70.514,1,16.228,8.1282,0,0
18.215,2.9266,3.087e+05,69.832,1,16.301,8.2013,0,0
17.819,2.9455,2.9962e+05,69.15,1,16.374,8.2744,0,0
17.423,2.9643,2.9053e+05,68.468,1,16.448,8.3475,0,0
17.027,2.9831,2.8145e+05,67.786,1,16.521,8.4206,0,0
16.744,2.9979,2.753e+05,67.304,1,16.594,8.4937,0,0
16.479,3.0119,2.6965e+05,66.856,1,16.667,8.5668,0,0
16.215,3.026,2.64e+05,66.407,1,16.74,8.6399,0,0
15.95,3.04,2.5835e+05,65.959,1,16.813,8.713,0,0
15.686,3.0541,2.5271e+05,65.51,1,16.886,8.7861,0,0
15.421,3.0681,2.4706e+05,65.062,1,16.959,8.8592,0,0
15.157,3.0822,2.4141e+05,64.613,1,17.032,8.9323,0,0
14.892,3.0962,2.3576e+05,64.165,1,17.105,9.0054,0,0
14.651,3.1098,2.307e+05,63.741,1,17.179,9.0785,0,0
14.433,3.1229,2.2624e+05,63.341,1,17.252,9.1516,0,0
14.215,3.136,2.2177e+05,62.942,1,17.325,9.2247,0,0
13.997,3.1491,2.1731e+05,62.542,1,17.398,9.2978,0,0
13.779,3.1622,2.1285e+05,62.143,1,17.471,9.3709,0,0
13.561,3.1753,2.0839e+05,61.743,1,17.544,9.444,0,0
13.343,3.1884,2.0393e+05,61.344,1,17.617,9.5171,0,0
13.125,3.2015,1.9946e+05,60.944,1,17.69,9.5902,0,0
12.911,3.2145,1.9509e+05,60.55,1,17.763,9.6633,0,0
12.738,3.2264,1.9169e+05,60.207,1,17.836,9.7364,0,0
12.565,3.2383,1.8828e+05,59.865,1,17.91,9.8095,0,0
12.392,3.2502,1.8487e+05,59.523,1,17.983,9.8826,0,0
12.219,3.2621,1.8147e+05,59.181,1,18.056,9.9557,0,0
12.046,3.274,1.7806e+05,58.839,1,18.129,10.029,0,0
11.873,3.2859,1.7465e+05,58.497,1,18.202,10.102,0,0
11.7,3.2978,1.7125e+05,58.154,1,18.275,10.175,0,0
11.528,3.3097,1.6784e+05,57.812,1,18.348,10.248,0,0
11.376,3.3208,1.6492e+05,57.501,1,18.421,10.321,0,0
11.239,3.3313,1.6231e+05,57.209,1,18.494,10.394,0,0
11.102,3.3419,1.597e+05,56.918,1,18.567,10.467,0,0
10.965,3.3525,1.5708e+05,56.626,1,18.64,10.54,0,0
10.827,3.363,1.5447e+05,56.335,1,18.714,10.614,0,0
10.69,3.3736,1.5186e+05,56.043,1,18.787,10.687,0,0
10.553,3.3842,1.4925e+05,55.752,1,18.86,10.76,0,0
10.416,3.3947,1.4663e+05,55.46,1,18.933,10.833,0,0
10.281,3.4052,1.4406e+05,55.172,1,19.006,10.906,0,0
10.17,3.4149,1.4204e+05,54.925,1,19.079,10.979,0,0
10.06,3.4246,1.4001e+05,54.679,1,19.152,11.052,0,0
9.95,3.4343,1.3799e+05,54.433,1,19.225,11.125,0,0
9.8398,3.4439,1.3597e+05,54.186,1,19.298,11.198,0,0
9.7296,3.4536,1.3394e+05,53.94,1,19.372,11.271,0,0
9.6194,3.4633,1.3192e+05,53.693,1,19.445,11.345,0,0
9.5092,3.4729,1.2989e+05,53.447,1,19.518,11.418,0,0
9.399,3.4826,1.2787e+05,53.201,1,19.591,11.491,0,0
9.2846,3.493,1.2578e+05,52.938,1,19.664,11.564,0,0
9.1656,3.5043,1.2363e+05,52.658,1,19.737,11.637,0,0
9.0364,3.5165,1.2129e+05,52.353,1,19.81,11.71,0,0
8.8723,3.5324,1.1835e+05,51.961,1,19.883,11.783,0,0
8.6336,3.5422,1.1452e+05,51.531,1,19.956,11.856,0,0
37.033,0.39544,1.6403e+06,163.38,1,20.029,11.929,0,0
37.589,0.34695,1.6761e+06,164.47,1,20.103,12.002,0,0
37.651,0.30325,1.6873e+06,165.18,1,20.176,12.076,0,0
37.709,0.2596,1.6984e+06,165.89,1,20.249,12.149,0,0
37.704,0.23275,1.7029e+06,166.27,1,20.322,12.222,0,0
37.686,0.20936,1.706e+06,166.58,1,20.395,12.295,0,0
37.669,0.18597,1.7091e+06,166.9,1,20.468,12.368,0,0
37.651,0.16257,1.7122e+06,167.21,1,20.541,12.441,0,0
37.658,0.14696,1.7184e+06,167.69,1,20.614,12.514,0,0
37.691,0.13991,1.7279e+06,168.35,1,20.687,12.587,0,0
37.725,0.13285,1.7374e+06,169.01,1,20.76,12.66,0,0
37.759,0.1258,1.747e+06,169.67,1,20.833,12.733,0,0
37.808,0.11959,1.7578e+06,170.37,1,20.907,12.807,0,0
37.969,0.11943,1.7778e+06,171.42,1,20.98,12.88,0,0
38.13,0.11928,1.7978e+06,172.47,1,21.053,12.953,0,0
38.291,0.11912,1.8178e+06,173.52,1,21.126,13.026,0,0
38.452,0.11896,1.8378e+06,174.56,1,21.199,13.099,0,0
38.603,0.12232,1.8501e+06,175.01,1,21.272,13.172,0,0
38.75,0.12691,1.8596e+06,175.25,1,21.345,13.245,0,0
38.898,0.1315,1.8692e+06,175.49,1,21.418,13.318,0,0
39.046,0.13609,1.8787e+06,175.73,1,21.491,13.391,0,0
39.248,0.1417,1.8911e+06,175.99,1,21.564,13.464,0,0
39.547,0.14916,1.9084e+06,176.29,1,21.638,13.538,0,0
39.847,0.15661,1.9257e+06,176.6,1,21.711,13.611,0,0
40.146,0.16407,1.9431e+06,176.9,1,21.784,13.684,0,0
40.446,0.17152,1.9604e+06,177.21,1,21.857,13.757,0,0
40.593,0.18451,1.9572e+06,176.48,1,21.93,13.83,0,0
40.73,0.19782,1.9529e+06,175.7,1,22.003,13.903,0,0
40.868,0.21113,1.9485e+06,174.92,1,22.076,13.976,0,0
41.006,0.22443,1.9442e+06,174.14,1,22.149,14.049,0,0
41.195,0.239,1.9439e+06,173.52,1,22.222,14.122,0,0
41.429,0.25466,1.9472e+06,173.04,1,22.295,14.195,0,0
41.663,0.27033,1.9505e+06,172.56,1,22.369,14.269,0,0
41.896,0.286,1.9538e+06,172.08,1,22.442,14.342,0,0
42.13,0.30166,1.9571e+06,171.6,1,22.515,14.415,0,0
42.364,0.31733,1.9603e+06,171.12,1,22.588,14.488,0,0
42.598,0.333,1.9636e+06,170.64,1,22.661,14.561,0,0
42.832,0.34866,1.9669e+06,170.16,1,22.734,14.634,0,0
43.065,0.36433,1.9702e+06,169.68,1,22.807,14.707,0,0
43.347,0.37939,1.9742e+06,169.15,1,22.88,14.78,0,0
43.656,0.39412,1.9786e+06,168.6,1,22.953,14.853,0,0
43.965,0.40884,1.983e+06,168.05,1,23.027,14.926,0,0
44.273,0.42357,1.9873e+06,167.5,1,23.1,15,0,0
44.582,0.4383,1.9917e+06,166.96,1,23.173,15.073,0,0
44.89,0.45303,1.9961e+06,166.41,1,23.246,15.146,0,0
45.199,0.46776,2.0005e+06,165.86,1,23.319,15.219,0,0
45.508,0.48248,2.0049e+06,165.31,1,23.392,15.292,0,0
45.816,0.49721,2.0093e+06,164.76,1,23.465,15.365,0,0
46.082,0.51041,2.0112e+06,164.21,1,23.538,15.438,0,0
46.329,0.52294,2.012e+06,163.66,1,23.611,15.511,0,0
46.577,0.53546,2.0128e+06,163.11,1,23.684,15.584,0,0
46.824,0.54799,2.0137e+06,162.56,1,23.757,15.657,0,0
47.071,0.56051,2.0145e+06,162.01,1,23.831,15.731,0,0
47.318,0.57304,2.0153e+06,161.46,1,23.904,15.804,0,0
47.565,0.58556,2.0162e+06,160.91,1,23.977,15.877,0,0
47.812,0.59809,2.017e+06,160.37,1,24.05,15.95,0,0
48.059,0.61061,2.0178e+06,159.82,1,24.123,16.023,0,0
48.219,0.62207,2.0159e+06,159.32,1,24.196,16.096,0,0
48.338,0.63304,2.0126e+06,158.86,1,24.269,16.169,0,0
48.457,0.644,2.0093e+06,158.39,1,24.342,16.242,0,0
48.576,0.65497,2.0059e+06,157.92,1,24.415,16.315,0,0
48.695,0.66593,2.0026e+06,157.46,1,24.489,16.389,0,0
48.813,0.6769,1.9993e+06,156.99,1,24.562,16.462,0,0
48.932,0.68786,1.996e+06,156.53,1,24.635,16.535,0,0
49.051,0.69882,1.9927e+06,156.06,1,24.708,16.608,0,0
49.17,0.70979,1.9894e+06,155.59,1,24.781,16.681,0,0
49.221,0.72042,1.9837e+06,155.13,1,24.854,16.754,0,0
49.229,0.73084,1.9765e+06,154.68,1,24.927,16.827,0,0
49.237,0.74127,1.9692e+06,154.22,1,25,16.9,0,0
49.245,0.75169,1.962e+06,153.77,1,25.073,16.973,0,0
49.253,0.76211,1.9547e+06,153.31,1,25.146,17.046,0,0
49.261,0.77253,1.9474e+06,152.86,1,25.219,17.119,0,0
49.269,0.78295,1.9402e+06,152.4,1,25.293,17.193,0,0
49.277,0.79337,1.9329e+06,151.95,1,25.366,17.266,0,0
49.284,0.8038,1.9257e+06,151.49,1,25.439,17.339,0,0
49.24,0.81432,1.9166e+06,151.03,1,25.512,17.412,0,0
49.137,0.82497,1.9054e+06,150.55,1,25.585,17.485,0,0
49.034,0.83561,1.8942e+06,150.08,1,25.658,17.558,0,0
48.932,0.84625,1.883e+06,149.6,1,25.731,17.631,0,0
48.829,0.8569,1.8718e+06,149.13,1,25.804,17.704,0,0
48.727,0.86754,1.8606e+06,148.65,1,25.877,17.777,0,0
48.624,0.87818,1.8494e+06,148.18,1,25.951,17.851,0,0
48.521,0.88883,1.8383e+06,147.7,1,26.024,17.924,0,0
48.419,0.89947,1.8271e+06,147.23,1,26.097,17.997,0,0
48.286,0.91027,1.8149e+06,146.74,1,26.17,18.07,0,0
48.078,0.92145,1.8001e+06,146.22,1,26.243,18.143,0,0
47.87,0.93263,1.7853e+06,145.71,1,26.316,18.216,0,0
47.661,0.94382,1.7705e+06,145.19,1,26.389,18.289,0,0
47.453,0.955,1.7557e+06,144.67,1,26.462,18.362,0,0
47.245,0.96618,1.7409e+06,144.16,1,26.535,18.435,0,0
47.036,0.97737,1.7261e+06,143.64,1,26.608,18.508,0,0
46.828,0.98855,1.7113e+06,143.12,1,26.681,18.581,0,0
46.62,0.99974,1.6965e+06,142.61,1,26.755,18.655,0,0
46.409,1.0109,1.6816e+06,142.09,1,26.828,18.728,0,0
46.114,1.0227,1.6643e+06,141.53,1,26.901,18.801,0,0
45.819,1.0345,1.6471e+06,140.98,1,26.974,18.874,0,0
45.524,1.0463,1.6298e+06,140.42,1,27.047,18.947,0,0
45.229,1.058,1.6125e+06,139.87,1,27.12,19.02,0,0
44.935,1.0698,1.5953e+06,139.31,1,27.193,19.093,0,0
44.64,1.0816,1.578e+06,138.76,1,27.266,19.166,0,0
44.345,1.0934,1.5607e+06,138.2,1,27.339,19.239,0,0
44.05,1.1051,1.5434e+06,137.65,1,27.413,19.312,0,0
43.755,1.1169,1.5262e+06,137.09,1,27.486,19.386,0,0
43.421,1.129,1.5081e+06,136.52,1,27.559,19.459,0,0
43.071,1.1413,1.4898e+06,135.93,1,27.632,19.532,0,0
42.721,1.1536,1.4715e+06,135.34,1,27.705,19.605,0,0
42.371,1.1659,1.4532e+06,134.76,1,27.778,19.678,0,0
42.022,1.1782,1.4349e+06,134.17,1,27.851,19.751,0,0
